Timestamp,ECGValue,BPM
1437123,368,103
1437132,327,103
1437144,354,103
1437149,342,103
1437164,322,103
1437175,357,103
1437181,317,103
1437195,332,103
1437199,341,103
1437214,299,103
1437225,403,94
1437232,606,94
1437232,659,94
1437257,589,94
1437265,210,94
1437277,310,94
1437287,326,94
1437298,294,94
1437308,333,94
1437317,302,94
1437329,321,94
1437339,337,94
1437348,303,94
1437359,340,94
1437366,321,94
1437366,323,94
1437390,358,94
1437398,324,94
1437410,353,94
1437417,348,94
1437431,327,94
1437441,362,94
1437448,331,94
1437462,351,94
1437472,374,94
1437482,352,94
1437482,400,94
1437499,391,94
1437499,397,94
1437524,435,94
1437532,404,99
1437544,427,99
1437554,408,99
1437564,359,99
1437575,373,99
1437581,322,99
1437595,320,99
1437606,331,99
1437614,295,99
1437626,332,99
1437636,318,99
1437647,315,99
1437657,348,99
1437666,309,99
1437666,332,99
1437683,329,99
1437698,304,99
1437699,344,99
1437718,318,99
1437729,334,99
1437739,358,99
1437748,331,99
1437760,374,99
1437770,369,99
1437780,367,99
1437783,401,99
1437798,364,99
1437811,385,99
1437821,381,99
1437832,344,99
1437832,376,99
1437848,339,99
1437863,341,99
1437865,357,99
1437881,319,99
1437881,350,99
1437899,336,99
1437913,326,99
1437924,361,99
1437932,325,99
1437932,345,99
1437955,347,99
1437965,319,99
1437975,354,99
1437982,321,99
1437982,315,99
1438007,334,99
1438017,291,99
1438027,323,99
1438032,308,99
1438047,295,99
1438048,328,99
1438064,291,99
1438077,311,99
1438082,316,99
1438098,284,99
1438108,321,99
1438118,295,99
1438129,295,99
1438131,320,99
1438149,282,99
1438161,314,99
1438170,301,99
1438182,281,99
1438190,318,99
1438198,283,99
1438211,303,99
1438220,309,99
1438231,282,99
1438231,336,99
1438248,311,99
1438263,304,99
1438273,328,99
1438282,282,99
1438293,310,99
1438304,298,99
1438314,278,99
1438320,311,99
1438332,278,99
1438332,293,99
1438349,294,99
1438365,314,99
1438376,587,91
1438382,658,91
1438396,512,91
1438399,199,91
1438415,233,91
1438426,293,91
1438432,283,91
1438447,261,91
1438458,300,91
1438465,274,91
1438478,292,91
1438488,307,91
1438498,276,91
1438498,321,91
1438519,308,91
1438529,307,91
1438532,338,91
1438548,301,91
1438561,331,91
1438571,332,91
1438581,315,91
1438591,357,91
1438597,331,91
1438612,358,91
1438622,389,91
1438632,373,91
1438642,425,91
1438649,418,91
1438663,418,91
1438674,450,91
1438681,399,91
1438694,397,91
1438699,364,91
1438714,313,91
1438725,328,91
1438732,279,91
1438732,282,91
1438748,295,91
1438765,259,91
1438777,294,91
1438783,278,91
1438796,266,91
1438807,294,91
1438815,257,91
1438821,285,91
1438838,293,91
1438848,270,91
1438855,311,91
1438866,286,91
1438879,294,91
1438889,313,91
1438899,277,91
1438910,309,91
1438920,292,91
1438930,276,91
1438932,310,91
1438949,273,91
1438949,297,91
1438965,305,91
1438981,280,91
1438982,316,91
1438998,286,91
1439012,288,91
1439022,310,91
1439032,271,91
1439032,305,91
1439048,295,91
1439063,286,91
1439073,324,91
1439082,290,91
1439082,314,91
1439105,322,91
1439115,296,91
1439125,339,91
1439132,313,91
1439145,315,91
1439156,338,91
1439164,299,91
1439176,329,91
1439187,317,91
1439197,300,91
1439208,336,91
1439214,304,91
1439220,320,91
1439232,331,91
1439248,313,91
1439249,354,91
1439266,325,91
1439275,325,91
1439284,344,91
1439298,305,91
1439310,339,91
1439320,333,91
1439331,315,91
1439341,352,91
1439348,315,91
1439348,318,91
1439365,345,91
1439381,484,89
1439391,659,89
1439398,657,89
1439412,269,89
1439423,275,89
1439431,301,89
1439443,325,89
1439448,317,89
1439448,300,89
1439474,339,89
1439481,308,89
1439481,322,89
1439505,335,89
1439515,301,89
1439525,340,89
1439532,325,89
1439546,327,89
1439548,358,89
1439565,325,89
1439577,352,89
1439582,348,89
1439597,325,89
1439607,365,89
1439615,338,89
1439628,360,89
1439638,391,89
1439649,372,89
1439659,422,89
1439665,413,89
1439679,409,89
1439690,437,90
1439698,381,90
1439710,380,90
1439720,354,90
1439731,308,90
1439732,332,90
1439749,295,90
1439749,304,90
1439772,326,90
1439782,294,90
1439793,332,90
1439798,320,90
1439813,312,90
1439823,344,90
1439832,308,90
1439843,329,90
1439854,328,90
1439864,300,90
1439875,337,90
1439881,308,90
1439895,312,90
1439899,334,90
1439914,297,90
1439926,334,90
1439932,322,90
1439946,311,90
1439948,345,90
1439964,310,90
1439977,334,90
1439982,340,90
1439998,314,90
1440009,353,90
1440015,325,90
1440024,330,90
1440038,353,90
1440048,315,90
1440059,350,90
1440065,339,90
1440080,324,90
1440091,359,90
1440098,324,90
1440110,345,90
1440117,353,90
1440131,322,90
1440141,362,90
1440148,335,90
1440161,336,90
1440172,359,90
1440181,319,90
1440193,349,90
1440203,343,90
1440213,326,90
1440224,362,90
1440232,328,90
1440243,345,90
1440254,356,90
1440265,323,90
1440275,361,90
1440282,338,90
1440295,335,90
1440299,361,90
1440316,323,90
1440327,355,90
1440332,351,90
1440332,334,90
1440357,369,90
1440364,333,90
1440377,348,90
1440388,360,90
1440398,323,90
1440408,356,90
1440415,337,90
1440429,344,90
1440432,370,90
1440448,329,90
1440460,356,90
1440470,350,90
1440480,327,90
1440490,365,90
1440498,330,90
1440498,339,90
1440520,352,90
1440531,316,90
1440542,341,90
1440548,360,90
1440563,554,89
1440572,659,89
1440582,626,89
1440582,248,89
1440598,289,89
1440614,305,89
1440624,331,89
1440634,298,89
1440644,311,89
1440648,332,89
1440665,298,89
1440673,331,89
1440682,315,89
1440696,311,89
1440698,349,89
1440714,323,89
1440724,355,89
1440732,357,89
1440747,326,89
1440757,360,89
1440765,326,89
1440777,333,89
1440788,352,89
1440798,320,89
1440808,367,89
1440819,366,89
1440829,369,89
1440832,419,89
1440849,397,89
1440860,428,89
1440870,433,89
1440880,388,89
1440891,402,89
1440898,349,89
1440911,331,89
1440922,339,89
1440931,291,89
1440932,319,89
1440948,307,89
1440962,291,89
1440973,328,89
1440982,291,89
1440993,308,89
1441004,316,89
1441014,287,89
1441023,325,89
1441031,301,89
1441031,305,89
1441055,333,89
1441065,296,89
1441076,330,89
1441082,323,89
1441082,304,89
1441106,337,89
1441115,299,89
1441127,313,89
1441132,323,89
1441148,288,89
1441158,327,89
1441166,306,89
1441178,305,89
1441189,333,89
1441198,295,89
1441210,326,89
1441214,320,89
1441230,299,89
1441239,338,89
1441248,308,89
1441248,324,89
1441271,340,89
1441281,311,89
1441291,347,89
1441299,327,89
1441299,322,89
1441322,350,89
1441331,311,89
1441343,336,89
1441349,329,89
1441363,304,89
1441365,342,89
1441383,310,89
1441383,325,89
1441398,341,89
1441414,308,89
1441425,343,89
1441432,323,89
1441432,315,89
1441448,345,89
1441465,312,89
1441476,337,89
1441482,337,89
1441482,312,89
1441499,352,89
1441515,321,89
1441528,330,89
1441538,350,89
1441548,313,89
1441548,343,89
1441565,332,89
1441579,330,89
1441589,351,89
1441598,313,89
1441610,332,89
1441620,330,89
1441630,304,89
1441640,345,89
1441649,314,89
1441660,315,89
1441671,330,89
1441681,286,89
1441691,315,89
1441698,428,87
1441711,657,87
1441722,658,87
1441732,331,87
1441743,212,87
1441748,299,87
1441764,276,87
1441773,309,87
1441782,284,87
1441794,289,87
1441804,317,87
1441814,282,87
1441825,315,87
1441832,311,87
1441832,301,87
1441856,341,87
1441866,308,87
1441874,330,87
1441881,341,87
1441897,312,87
1441907,352,87
1441915,333,87
1441927,340,87
1441938,373,87
1441948,350,87
1441959,396,87
1441965,404,87
1441980,400,87
1441989,446,87
1441998,417,87
1442010,430,100
1442017,424,100
1442024,362,100
1442031,369,100
1442049,320,100
1442062,301,100
1442064,319,100
1442081,275,100
1442092,305,100
1442098,299,100
1442113,278,100
1442121,315,100
1442131,281,100
1442143,290,100
1442154,302,100
1442164,268,100
1442173,309,100
1442183,292,100
1442183,290,100
1442199,322,100
1442215,288,100
1442225,320,100
1442231,319,100
1442246,296,100
1442257,331,100
1442266,297,100
1442277,308,100
1442287,322,100
1442298,285,100
1442307,318,100
1442315,296,100
1442327,285,100
1442339,314,100
1442348,275,100
1442359,299,100
1442366,298,100
1442366,277,100
1442381,316,100
1442398,289,100
1442410,304,100
1442421,324,100
1442430,293,100
1442432,332,100
1442448,316,100
1442462,306,100
1442472,337,100
1442482,300,100
1442492,323,100
1442499,327,100
1442513,298,100
1442521,336,100
1442531,310,100
1442544,316,100
1442554,338,100
1442564,309,100
1442574,357,100
1442582,337,100
1442582,322,100
1442605,353,100
1442614,310,100
1442626,329,100
1442632,334,100
1442632,303,100
1442657,340,100
1442665,315,100
1442676,316,100
1442687,330,100
1442698,358,100
1442708,623,94
1442714,659,94
1442728,539,94
1442738,237,94
1442748,273,94
1442748,322,94
1442764,320,94
1442780,291,94
1442782,332,94
1442798,311,94
1442811,311,94
1442821,338,94
1442831,301,94
1442841,335,94
1442848,331,94
1442862,316,94
1442873,359,94
1442881,331,94
1442892,351,94
1442899,363,94
1442913,327,94
1442916,361,94
1442932,339,94
1442944,341,94
1442948,379,94
1442964,354,94
1442968,396,94
1442982,405,94
1442995,391,94
1443006,432,94
1443015,389,94
1443027,379,94
1443031,369,94
1443046,312,94
1443057,332,94
1443065,300,94
1443078,289,94
1443081,318,94
1443098,284,94
1443108,314,94
1443115,315,94
1443129,293,94
1443139,332,94
1443149,301,94
1443159,312,94
1443165,332,94
1443181,297,94
1443190,332,94
1443198,314,94
1443210,303,94
1443217,335,94
1443232,298,94
1443232,325,94
1443248,328,94
1443263,302,94
1443272,341,94
1443281,313,94
1443293,321,94
1443298,343,94
1443314,307,94
1443323,340,94
1443332,325,94
1443344,313,94
1443355,345,94
1443364,309,94
1443375,333,94
1443382,338,94
1443396,310,94
1443398,350,94
1443416,321,94
1443427,323,94
1443431,348,94
1443447,311,94
1443449,345,94
1443466,338,94
1443478,322,94
1443488,357,94
1443498,321,94
1443509,340,94
1443515,345,94
1443529,311,94
1443539,351,94
1443548,326,94
1443561,326,94
1443567,353,94
1443567,317,94
1443591,349,94
1443598,344,94
1443612,328,94
1443616,367,94
1443632,332,94
1443641,349,94
1443649,358,94
1443662,324,94
1443673,359,94
1443682,333,94
1443693,328,94
1443704,355,94
1443714,318,94
1443725,346,94
1443732,348,94
1443745,341,94
1443748,373,94
1443765,334,94
1443776,345,94
1443782,355,94
1443782,318,94
1443799,352,94
1443815,332,94
1443827,323,94
1443837,353,94
1443848,316,94
1443857,330,94
1443865,380,94
1443878,572,90
1443889,659,90
1443899,602,90
1443899,226,90
1443915,302,90
1443930,298,90
1443932,324,90
1443948,309,90
1443948,305,90
1443966,341,90
1443974,305,90
1443981,329,90
1443999,330,90
1444011,308,90
1444022,353,90
1444032,330,90
1444042,343,90
1444048,363,90
1444064,324,90
1444073,352,90
1444082,333,90
1444085,323,90
1444099,361,90
1444114,330,90
1444125,362,90
1444131,380,90
1444145,368,90
1444155,422,90
1444165,406,90
1444176,419,90
1444186,440,90
1444196,386,90
1444198,394,90
1444215,359,90
1444226,325,90
1444238,345,90
1444248,300,90
1444259,318,90
1444265,324,90
1444272,294,90
1444281,334,90
1444298,306,90
1444309,306,90
1444315,328,90
1444330,286,90
1444340,316,90
1444348,308,90
1444361,293,90
1444370,330,90
1444382,299,90
1444382,316,90
1444398,328,90
1444411,297,90
1444416,333,90
1444432,309,90
1444443,306,90
1444453,329,90
1444464,290,90
1444474,321,90
1444482,318,90
1444482,299,90
1444498,335,90
1444514,302,90
1444524,314,90
1444532,330,90
1444545,298,90
1444548,337,90
1444564,319,90
1444576,315,90
1444587,347,90
1444597,312,90
1444599,339,90
1444616,335,90
1444626,309,90
1444638,344,90
1444648,310,90
1444658,318,90
1444664,337,90
1444678,305,90
1444689,342,90
1444698,324,90
1444709,315,90
1444719,345,90
1444731,307,90
1444740,330,90
1444748,329,90
1444761,303,90
1444765,338,90
1444781,308,90
1444793,319,90
1444798,344,90
1444813,310,90
1444823,349,90
1444832,328,90
1444843,314,90
1444854,357,90
1444864,323,90
1444874,334,90
1444882,336,90
1444882,297,90
1444905,329,90
1444915,301,90
1444924,304,90
1444932,325,90
1444945,286,90
1444957,320,90
1444965,301,90
1444977,301,90
1444987,502,90
1444997,658,90
1445000,655,90
1445016,267,90
1445027,210,90
1445032,315,90
1445049,286,90
1445059,282,90
1445069,304,90
1445079,269,90
1445082,303,90
1445098,298,90
1445110,282,90
1445119,327,90
1445130,297,90
1445141,317,90
1445148,328,90
1445162,296,90
1445168,333,90
1445182,311,90
1445193,314,90
1445199,349,90
1445213,320,90
1445223,364,90
1445232,370,90
1445244,367,90
1445254,420,90
1445265,399,90
1445274,422,90
1445281,435,90
1445294,395,90
1445305,413,101
1445315,362,101
1445325,329,101
1445331,334,101
1445331,283,101
1445357,302,101
1445365,299,101
1445377,275,101
1445382,313,101
1445397,282,101
1445398,295,101
1445415,313,101
1445428,281,101
1445439,319,101
1445448,305,101
1445459,300,101
1445469,331,101
1445479,294,101
1445489,322,101
1445498,323,101
1445510,300,101
1445521,338,101
1445531,305,101
1445542,314,101
1445548,331,101
1445562,294,101
1445571,329,101
1445581,310,101
1445593,298,101
1445598,332,101
1445613,293,101
1445615,312,101
1445631,313,101
1445644,286,101
1445654,326,101
1445664,297,101
1445675,304,101
1445682,330,101
1445696,297,101
1445699,335,101
1445715,328,101
1445725,316,101
1445732,349,101
1445746,314,101
1445757,334,101
1445765,340,101
1445777,309,101
1445787,357,101
1445798,338,101
1445808,334,101
1445815,351,101
1445829,311,101
1445840,337,101
1445848,325,101
1445859,309,101
1445867,343,101
1445880,306,101
1445890,329,101
1445898,338,101
1445911,299,101
1445921,412,96
1445932,632,96
1445941,659,96
1445948,535,96
1445962,193,96
1445967,306,96
1445982,318,96
1445993,292,96
1445998,329,96
1446014,296,96
1446023,315,96
1446033,332,96
1446044,300,96
1446048,341,96
1446065,323,96
1446075,324,96
1446082,356,96
1446082,324,96
1446106,359,96
1446114,356,96
1446127,334,96
1446132,369,96
1446147,332,96
1446157,347,96
1446165,366,96
1446177,343,96
1446188,391,96
1446198,382,96
1446209,387,96
1446216,422,96
1446229,385,96
1446239,399,96
1446248,373,96
1446248,323,96
1446265,338,96
1446274,292,96
1446282,291,96
1446299,305,96
1446311,272,96
1446317,312,96
1446332,298,96
1446342,291,96
1446349,327,96
1446363,292,96
1446368,318,96
1446381,319,96
1446393,289,96
1446398,324,96
1446413,293,96
1446425,300,96
1446432,319,96
1446444,286,96
1446449,323,96
1446465,311,96
1446475,304,96
1446481,341,96
1446496,302,96
1446499,328,96
1446515,331,96
1446527,303,96
1446532,344,96
1446548,314,96
1446558,318,96
1446565,339,96
1446578,299,96
1446589,331,96
1446598,318,96
1446609,304,96
1446618,340,96
1446630,307,96
1446632,331,96
1446649,340,96
1446661,315,96
1446665,356,96
1446681,330,96
1446692,330,96
1446698,351,96
1446711,309,96
1446722,338,96
1446732,327,96
1446742,308,96
1446748,345,96
1446763,313,96
1446773,335,96
1446781,347,96
1446794,318,96
1446798,358,96
1446814,335,96
1446816,333,96
1446831,357,96
1446845,321,96
1446848,351,96
1446866,345,96
1446873,327,96
1446882,365,96
1446897,330,96
1446906,344,96
1446915,355,96
1446927,320,96
1446937,355,96
1446947,330,96
1446959,333,96
1446965,375,96
1446978,332,96
1446982,357,96
1446998,354,96
1447009,325,96
1447015,360,96
1447030,326,96
1447033,336,96
1447048,349,96
1447048,313,96
1447065,349,96
1447081,320,96
1447091,368,96
1447101,615,91
1447112,659,91
1447122,608,91
1447132,248,91
1447143,272,91
1447149,343,91
1447163,298,91
1447168,308,91
1447182,329,91
1447182,298,91
1447199,336,91
1447214,320,91
1447225,310,91
1447232,345,91
1447245,315,91
1447248,344,91
1447264,351,91
1447276,328,91
1447282,364,91
1447296,328,91
1447307,332,91
1447315,352,91
1447328,322,91
1447338,363,91
1447348,361,91
1447358,363,91
1447367,408,91
1447378,384,91
1447389,415,91
1447399,423,91
1447410,388,91
1447418,409,91
1447430,358,91
1447440,337,91
1447448,340,91
1447461,290,91
1447465,317,91
1447482,305,91
1447483,289,91
1447499,328,91
1447499,295,91
1447515,313,91
1447532,324,91
1447543,290,91
1447548,326,91
1447564,300,91
1447573,300,91
1447581,326,91
1447594,287,91
1447605,317,91
1447615,310,91
1447620,293,91
1447632,335,91
1447632,301,91
1447655,318,91
1447664,329,91
1447676,297,91
1447682,336,91
1447697,314,91
1447708,314,91
1447715,339,91
1447727,304,91
1447738,333,91
1447748,328,91
1447759,306,91
1447767,344,91
1447779,309,91
1447789,326,91
1447798,341,91
1447810,308,91
1447820,345,91
1447831,327,91
1447841,322,91
1447848,353,91
1447861,314,91
1447871,342,91
1447882,340,91
1447882,313,91
1447900,350,91
1447912,318,91
1447915,329,91
1447932,344,91
1447944,308,91
1447948,345,91
1447964,329,91
1447974,324,91
1447982,358,91
1447988,324,91
1447999,350,91
1448015,352,91
1448026,323,91
1448033,361,91
1448033,328,91
1448056,329,91
1448064,349,91
1448077,314,91
1448087,349,91
1448097,335,91
1448108,322,91
1448115,359,91
1448128,338,91
1448139,357,91
1448149,355,91
1448158,324,91
1448167,354,91
1448180,324,91
1448190,329,91
1448198,354,91
1448210,314,91
1448221,342,91
1448231,330,91
1448241,304,91
1448248,388,91
1448261,579,91
1448272,659,91
1448282,614,91
1448293,196,91
1448299,293,91
1448313,301,91
1448323,293,91
1448333,317,91
1448344,282,91
1448349,317,91
1448365,311,91
1448375,296,91
1448382,334,91
1448396,303,91
1448398,320,91
1448415,330,91
1448426,301,91
1448434,338,91
1448446,316,91
1448457,314,91
1448464,342,91
1448477,309,91
1448488,349,91
1448498,355,91
1448509,353,91
1448516,406,91
1448528,386,91
1448533,407,91
1448549,425,91
1448549,391,91
1448570,418,91
1448580,371,91
1448582,336,91
1448599,337,91
1448599,279,91
1448621,292,91
1448631,280,91
1448641,254,91
1448649,291,91
1448662,263,91
1448673,277,91
1448682,293,91
1448682,258,91
1448703,296,91
1448713,282,91
1448724,275,91
1448734,307,91
1448744,273,91
1448749,299,91
1448765,305,91
1448775,283,91
1448782,322,91
1448782,289,91
1448806,296,91
1448815,317,91
1448825,281,91
1448836,319,91
1448847,306,91
1448857,297,91
1448865,328,91
1448878,293,91
1448888,317,91
1448898,321,91
1448908,296,91
1448914,338,91
1448929,310,91
1448939,317,91
1448948,338,91
1448960,302,91
1448966,338,91
1448981,325,91
1448991,317,91
1448998,353,91
1449011,316,91
1449015,336,91
1449031,341,91
1449042,314,91
1449048,352,91
1449063,326,91
1449072,333,91
1449081,370,91
1449093,338,91
1449098,364,91
1449098,353,91
1449124,327,91
1449134,359,91
1449144,321,91
1449148,337,91
1449165,344,91
1449175,312,91
1449182,350,91
1449196,320,91
1449206,319,91
1449214,475,92
1449227,658,92
1449234,658,92
1449247,363,92
1449248,205,92
1449266,322,92
1449275,293,92
1449285,305,92
1449298,320,92
1449309,292,92
1449315,332,92
1449330,311,92
1449340,311,92
1449348,342,92
1449360,307,92
1449370,341,92
1449380,339,92
1449382,324,92
1449398,364,92
1449411,327,92
1449415,340,92
1449432,351,92
1449434,316,92
1449448,354,92
1449448,344,92
1449466,352,92
1449483,398,92
1449494,375,92
1449499,412,92
1449515,415,106
1449525,389,106
1449534,409,106
1449534,348,106
1449549,333,106
1449565,329,106
1449575,277,106
1449582,302,106
1449596,279,106
1449599,267,106
1449615,302,106
1449625,266,106
1449637,293,106
1449647,297,106
1449658,270,106
1449665,310,106
1449678,281,106
1449682,291,106
1449697,312,106
1449710,278,106
1449715,313,106
1449724,300,106
1449734,288,106
1449749,324,106
1449760,289,106
1449771,311,106
1449781,315,106
1449792,286,106
1449798,325,106
1449812,296,106
1449819,303,106
1449831,325,106
1449843,291,106
1449849,328,106
1449864,316,106
1449873,302,106
1449881,337,106
1449894,300,106
1449905,321,106
1449915,328,106
1449925,298,106
1449934,337,106
1449946,314,106
1449956,315,106
1449965,342,106
1449976,304,106
1449982,335,106
1449997,328,106
1449999,313,106
1450015,347,106
1450024,310,106
1450034,331,106
1450048,344,106
1450059,314,106
1450064,351,106
1450078,328,106
1450082,326,106
1450098,353,106
1450098,313,106
1450116,343,106
1450130,338,106
1450140,320,106
1450148,359,106
1450160,328,106
1450171,344,106
1450181,358,106
1450192,324,106
1450199,359,106
1450212,336,106
1450223,331,106
1450232,358,106
1450243,320,106
1450248,346,106
1450264,343,106
1450273,323,106
1450282,375,106
1450282,339,106
1450298,347,106
1450315,364,106
1450325,323,106
1450335,356,106
1450345,336,106
1450349,329,106
1450364,357,106
1450376,319,106
1450387,343,106
1450397,333,106
1450407,337,106
1450417,560,96
1450428,659,96
1450438,654,96
1450448,295,96
1450449,256,96
1450465,344,96
1450480,314,96
1450482,301,96
1450498,340,96
1450509,306,96
1450520,332,96
1450531,335,96
1450541,308,96
1450548,347,96
1450561,324,96
1450571,335,96
1450582,360,96
1450591,329,96
1450598,364,96
1450613,344,96
1450623,327,96
1450632,363,96
1450635,329,96
1450654,355,96
1450664,369,96
1450675,352,96
1450682,405,96
1450695,392,96
1450706,406,96
1450715,437,96
1450726,398,96
1450735,416,104
1450738,379,104
1450749,338,104
1450765,353,104
1450777,304,104
1450782,314,104
1450797,322,104
1450808,290,104
1450815,328,104
1450828,306,104
1450839,304,104
1450849,329,104
1450849,289,104
1450865,318,104
1450875,308,104
1450882,287,104
1450898,323,104
1450910,288,104
1450920,304,104
1450931,316,104
1450941,284,104
1450948,325,104
1450961,304,104
1450972,302,104
1450981,330,104
1450993,292,104
1450998,324,104
1451013,318,104
1451015,299,104
1451031,338,104
1451035,306,104
1451049,320,104
1451064,335,104
1451075,299,104
1451081,334,104
1451095,314,104
1451098,308,104
1451115,337,104
1451123,301,104
1451135,332,104
1451135,330,104
1451156,310,104
1451167,347,104
1451177,314,104
1451181,325,104
1451197,341,104
1451198,304,104
1451214,340,104
1451221,323,104
1451235,316,104
1451247,348,104
1451259,313,104
1451269,339,104
1451273,341,104
1451287,318,104
1451300,358,104
1451311,331,104
1451320,338,104
1451331,359,104
1451337,325,104
1451352,356,104
1451362,338,104
1451370,326,104
1451383,359,104
1451393,321,104
1451403,344,104
1451413,345,104
1451421,316,104
1451434,354,104
1451445,326,104
1451453,329,104
1451465,356,104
1451475,321,104
1451486,354,104
1451496,349,104
1451504,346,104
1451516,384,104
1451526,342,104
1451536,361,104
1451546,361,104
1451552,325,104
1451567,359,104
1451578,334,104
1451588,332,104
1451599,357,104
1451604,321,104
1451619,349,104
1451629,343,104
1451637,460,94
1451649,659,94
1451660,659,94
1451669,424,94
1451680,263,94
1451686,314,94
1451701,354,94
1451711,323,94
1451720,326,94
1451732,359,94
1451737,324,94
1451753,352,94
1451763,346,94
1451770,328,94
1451783,368,94
1451787,338,94
1451803,354,94
1451814,366,94
1451820,326,94
1451835,355,94
1451845,324,94
1451854,315,94
1451854,348,94
1451875,316,94
1451886,355,94
1451887,368,94
1451903,361,94
1451917,416,94
1451920,399,94
1451937,416,94
1451947,434,99
1451953,384,99
1451968,393,99
1451979,346,99
1451987,311,99
1451998,320,99
1452009,271,99
1452020,291,99
1452029,289,99
1452037,266,99
1452050,308,99
1452061,277,99
1452070,281,99
1452081,296,99
1452087,257,99
1452101,291,99
1452111,278,99
1452120,272,99
1452132,311,99
1452142,272,99
1452153,294,99
1452163,300,99
1452170,272,99
1452183,310,99
1452193,280,99
1452203,285,99
1452215,306,99
1452219,266,99
1452235,299,99
1452245,285,99
1452253,271,99
1452265,305,99
1452275,271,99
1452286,290,99
1452296,296,99
1452304,269,99
1452304,308,99
1452323,282,99
1452337,285,99
1452348,311,99
1452354,279,99
1452369,314,99
1452377,305,99
1452386,286,99
1452386,320,99
1452403,286,99
1452419,306,99
1452430,316,99
1452436,288,99
1452450,328,99
1452460,305,99
1452470,308,99
1452476,334,99
1452486,303,99
1452501,332,99
1452512,331,99
1452519,311,99
1452532,356,99
1452543,341,99
1452553,342,99
1452563,355,99
1452570,320,99
1452584,345,99
1452586,330,99
1452603,323,99
1452614,348,99
1452624,316,99
1452624,337,99
1452637,340,99
1452654,308,99
1452663,403,107
1452676,623,107
1452686,659,107
1452687,589,107
1452703,204,107
1452717,306,107
1452728,325,107
1452737,308,107
1452747,337,107
1452753,307,107
1452768,329,107
1452779,336,107
1452787,314,107
1452799,350,107
1452804,334,107
1452820,343,107
1452830,364,107
1452837,336,107
1452850,367,107
1452854,361,107
1452870,352,107
1452882,381,107
1452887,353,107
1452902,372,107
1452912,387,107
1452920,374,107
1452933,421,107
1452943,414,107
1452953,424,107
1452964,447,108
1452972,414,108
1452972,430,108
1452994,393,108
1453004,347,108
1453012,348,108
1453025,295,108
1453035,296,108
1453038,298,108
1453055,268,108
1453063,300,108
1453070,283,108
1453086,279,108
1453086,303,108
1453105,270,108
1453112,295,108
1453120,293,108
1453138,275,108
1453148,308,108
1453154,282,108
1453162,297,108
1453170,311,108
1453187,287,108
1453200,320,108
1453210,305,108
1453220,301,108
1453231,328,108
1453238,296,108
1453238,318,108
1453253,312,108
1453271,292,108
1453282,324,108
1453286,295,108
1453302,305,108
1453313,316,108
1453320,284,108
1453333,315,108
1453338,298,108
1453353,291,108
1453364,318,108
1453370,289,108
1453384,314,108
1453394,318,108
1453403,301,108
1453415,339,108
1453426,315,108
1453435,326,108
1453446,341,108
1453453,309,108
1453467,338,108
1453477,320,108
1453487,310,108
1453497,336,108
1453503,307,108
1453518,328,108
1453529,330,108
1453538,305,108
1453549,335,108
1453559,310,108
1453569,314,108
1453579,334,108
1453586,302,108
1453600,334,108
1453611,330,108
1453621,322,108
1453631,354,108
1453638,336,108
1453651,363,108
1453653,357,108
1453672,330,108
1453682,355,108
1453692,323,108
1453703,323,108
1453712,339,108
1453721,309,108
1453721,335,108
1453744,326,108
1453754,310,108
1453764,334,108
1453770,413,109
1453785,657,109
1453794,659,109
1453803,425,109
1453803,244,109
1453819,308,109
1453836,314,109
1453847,329,109
1453853,299,109
1453867,327,109
1453877,323,109
1453887,306,109
1453897,336,109
1453903,305,109
1453918,325,109
1453928,343,109
1453938,323,109
1453949,361,109
1453953,344,109
1453970,339,109
1453973,358,109
1453986,324,109
1454000,348,109
1454011,348,109
1454020,337,109
1454031,378,109
1454038,362,109
1454038,386,109
1454062,408,109
1454070,388,109
1454070,423,109
1454087,399,109
1454103,374,109
1454112,377,109
1454120,324,109
1454134,331,109
1454144,319,109
1454153,296,109
1454164,327,109
1454175,301,109
1454185,309,109
1454195,322,109
1454203,291,109
1454216,320,109
1454222,301,109
1454236,292,109
1454247,319,109
1454254,286,109
1454262,309,109
1454278,311,109
1454287,291,109
1454288,326,109
1454304,303,109
1454315,310,109
1454329,327,109
1454339,295,109
1454349,324,109
1454360,313,109
1454370,304,109
1454380,333,109
1454386,301,109
1454400,322,109
1454411,328,109
1454420,304,109
1454432,336,109
1454439,312,109
1454439,314,109
1454462,334,109
1454470,305,109
1454483,336,109
1454493,327,109
1454503,317,109
1454514,348,109
1454520,321,109
1454534,337,109
1454544,345,109
1454553,319,109
1454565,350,109
1454575,325,109
1454585,324,109
1454596,343,109
1454604,311,109
1454604,340,109
1454621,333,109
1454637,320,109
1454639,355,109
1454653,328,109
1454668,345,109
1454670,354,109
1454686,326,109
1454698,359,109
1454708,337,109
1454719,335,109
1454730,356,109
1454739,323,109
1454750,346,109
1454759,341,109
1454770,321,109
1454780,352,109
1454786,321,109
1454801,334,109
1454811,350,109
1454820,323,109
1454831,355,109
1454842,342,109
1454852,352,109
1454863,379,109
1454871,339,109
1454883,364,109
1454887,354,109
1454903,329,109
1454903,358,109
1454920,326,109
1454934,334,109
1454940,345,109
1454953,314,109
1454965,341,109
1454970,339,109
1454986,495,93
1454996,659,93
1455003,658,93
1455018,343,93
1455020,271,93
1455036,321,93
1455047,342,93
1455054,309,93
1455068,321,93
1455070,338,93
1455089,313,93
1455099,346,93
1455109,335,93
1455119,330,93
1455130,362,93
1455140,337,93
1455150,363,93
1455160,369,93
1455169,343,93
1455181,368,93
1455186,336,93
1455202,336,93
1455212,351,93
1455220,322,93
1455232,358,93
1455242,357,93
1455253,363,93
1455264,407,93
1455270,390,93
1455283,420,93
1455293,429,98
1455303,396,98
1455303,407,98
1455320,360,98
1455334,341,98
1455340,341,98
1455353,297,98
1455366,319,98
1455376,305,98
1455386,287,98
1455396,316,98
1455403,285,98
1455416,298,98
1455427,300,98
1455436,270,98
1455448,305,98
1455458,281,98
1455468,287,98
1455479,314,98
1455487,285,98
1455500,317,98
1455509,310,98
1455520,297,98
1455530,326,98
1455540,293,98
1455550,304,98
1455561,308,98
1455570,278,98
1455580,307,98
1455591,289,98
1455602,286,98
1455603,308,98
1455619,276,98
1455633,297,98
1455643,294,98
1455653,276,98
1455663,309,98
1455670,281,98
1455684,293,98
1455694,306,98
1455703,280,98
1455715,312,98
1455723,294,98
1455736,288,98
1455746,315,98
1455753,283,98
1455766,304,98
1455776,304,98
1455787,286,98
1455796,314,98
1455803,291,98
1455817,300,98
1455827,315,98
1455836,289,98
1455849,324,98
1455854,315,98
1455869,307,98
1455878,335,98
1455888,316,98
1455899,348,98
1455903,341,98
1455919,318,98
1455923,345,98
1455940,313,98
1455951,321,98
1455953,337,98
1455970,308,98
1455970,336,98
1455987,326,98
1455987,317,98
1456013,336,98
1456020,385,98
1456020,656,92
1456040,659,92
1456053,497,92
1456064,231,92
1456070,293,92
1456085,321,92
1456095,333,92
1456103,303,92
1456115,334,92
1456126,325,92
1456136,316,92
1456146,346,92
1456153,323,92
1456167,345,92
1456172,356,92
1456186,331,92
1456197,367,92
1456204,347,92
1456212,352,92
1456220,376,92
1456237,349,92
1456249,376,92
1456255,373,92
1456269,369,92
1456269,415,92
1456287,400,92
1456300,428,92
1456304,444,92
1456320,422,92
1456331,449,101
1456341,413,101
1456350,381,101
1456353,370,101
1456369,314,101
1456382,316,101
1456393,296,101
1456403,274,101
1456412,306,101
1456420,277,101
1456433,291,101
1456444,300,101
1456453,272,101
1456465,301,101
1456473,285,101
1456485,281,101
1456494,307,101
1456503,278,101
1456515,304,101
1456521,302,101
1456535,287,101
1456546,321,101
1456553,293,101
1456567,304,101
1456570,316,101
1456586,286,101
1456598,317,101
1456604,303,101
1456612,300,101
1456621,325,101
1456636,292,101
1456648,315,101
1456659,309,101
1456669,285,101
1456680,315,101
1456687,286,101
1456701,296,101
1456710,315,101
1456721,288,101
1456725,321,101
1456741,310,101
1456741,306,101
1456762,338,101
1456769,310,101
1456782,332,101
1456793,333,101
1456803,309,101
1456814,339,101
1456820,312,101
1456834,318,101
1456844,334,101
1456853,303,101
1456864,329,101
1456875,317,101
1456885,307,101
1456896,337,101
1456903,308,101
1456916,327,101
1456926,336,101
1456936,311,101
1456941,342,101
1456953,331,101
1456967,348,101
1456970,358,101
1456986,325,101
1456998,349,101
1457008,331,101
1457018,316,101
1457029,344,101
1457036,311,101
1457050,325,101
1457060,330,101
1457070,300,101
1457080,324,101
1457086,394,101
1457101,643,94
1457110,659,94
1457120,468,94
1457132,232,94
1457141,310,94
1457152,305,94
1457154,328,94
1457170,301,94
1457183,316,94
1457187,329,94
1457203,305,94
1457213,339,94
1457220,318,94
1457234,321,94
1457244,350,94
1457253,325,94
1457265,356,94
1457272,355,94
1457272,335,94
1457296,362,94
1457304,330,94
1457313,343,94
1457327,356,94
1457336,335,94
1457347,378,94
1457353,373,94
1457367,382,94
1457378,416,94
1457388,392,94
1457398,418,94
1457403,406,104
1457418,365,104
1457424,371,104
1457437,321,104
1457450,316,104
1457453,322,104
1457470,290,104
1457480,322,104
1457487,309,104
1457500,304,104
1457504,333,104
1457520,300,104
1457531,319,104
1457542,317,104
1457552,293,104
1457563,323,104
1457571,295,104
1457583,304,104
1457588,320,104
1457603,292,104
1457614,324,104
1457620,313,104
1457634,304,104
1457642,338,104
1457654,308,104
1457665,327,104
1457675,328,104
1457686,306,104
1457696,341,104
1457703,318,104
1457717,321,104
1457727,337,104
1457736,306,104
1457747,334,104
1457754,322,104
1457768,310,104
1457778,341,104
1457787,313,104
1457799,334,104
1457803,342,104
1457819,317,104
1457829,351,104
1457837,328,104
1457850,330,104
1457854,348,104
1457870,314,104
1457881,339,104
1457887,328,104
1457887,312,104
1457903,344,104
1457920,312,104
1457920,329,104
1457942,340,104
1457953,314,104
1457963,347,104
1457969,329,104
1457983,331,104
1457994,356,104
1458003,324,104
1458015,352,104
1458024,346,104
1458035,329,104
1458045,358,104
1458054,327,104
1458066,337,104
1458073,346,104
1458086,316,104
1458096,345,104
1458103,325,104
1458117,323,104
1458123,352,104
1458136,320,104
1458148,351,104
1458153,359,104
1458168,356,104
1458174,384,104
1458186,352,104
1458189,356,104
1458205,358,104
1458212,322,104
1458221,350,104
1458237,330,104
1458250,325,104
1458254,350,104
1458270,320,104
1458281,334,104
1458286,388,104
1458301,585,94
1458304,659,94
1458320,633,94
1458332,248,94
1458343,314,94
1458353,320,94
1458363,338,94
1458370,321,94
1458384,317,94
1458395,345,94
1458403,316,94
1458415,339,94
1458425,340,94
1458435,322,94
1458445,360,94
1458454,344,94
1458454,357,94
1458476,377,94
1458487,343,94
1458487,363,94
1458503,343,94
1458517,329,94
1458528,358,94
1458536,332,94
1458548,361,94
1458558,378,94
1458569,368,94
1458578,417,94
1458586,402,94
1458600,414,94
1458610,430,101
1458620,388,101
1458630,392,101
1458637,359,101
1458644,328,101
1458661,339,101
1458670,297,101
1458682,309,101
1458687,310,101
1458703,282,101
1458712,312,101
1458720,284,101
1458720,283,101
1458743,300,101
1458754,265,101
1458762,294,101
1458770,295,101
1458785,285,101
1458794,314,101
1458804,282,101
1458804,295,101
1458820,299,101
1458836,274,101
1458846,307,101
1458854,287,101
1458866,286,101
1458877,306,101
1458886,273,101
1458897,298,101
1458903,295,101
1458918,276,101
1458923,308,101
1458937,278,101
1458948,296,101
1458954,309,101
1458969,282,101
1458970,317,101
1458986,296,101
1459000,293,101
1459004,316,101
1459019,288,101
1459030,314,101
1459036,307,101
1459050,291,101
1459061,321,101
1459070,294,101
1459082,307,101
1459092,319,101
1459102,292,101
1459113,325,101
1459122,306,101
1459132,300,101
1459143,329,101
1459153,302,101
1459164,327,101
1459170,324,101
1459184,320,101
1459195,364,101
1459203,332,101
1459215,340,101
1459223,350,101
1459236,314,101
1459246,342,101
1459254,325,101
1459266,317,101
1459276,341,101
1459287,310,101
1459297,335,101
1459307,326,101
1459318,348,101
1459328,608,94
1459336,659,94
1459349,613,94
1459359,243,94
1459369,268,94
1459379,337,94
1459387,315,94
1459400,305,94
1459411,334,94
1459420,303,94
1459430,325,94
1459436,328,94
1459449,311,94
1459461,349,94
1459471,331,94
1459482,340,94
1459487,360,94
1459503,329,94
1459514,362,94
1459519,353,94
1459534,343,94
1459544,371,94
1459553,343,94
1459564,370,94
1459570,386,94
1459585,377,94
1459596,423,94
1459603,409,94
1459616,420,94
1459624,440,94
1459624,398,94
1459644,399,94
1459654,357,94
1459663,314,94
1459670,324,94
1459686,278,94
1459698,286,94
1459704,289,94
1459718,262,94
1459729,294,94
1459737,273,94
1459744,274,94
1459760,295,94
1459769,265,94
1459780,296,94
1459787,289,94
1459800,277,94
1459811,307,94
1459820,278,94
1459831,294,94
1459842,306,94
1459851,284,94
1459862,315,94
1459872,293,94
1459883,292,94
1459892,315,94
1459904,284,94
1459913,312,94
1459921,308,94
1459934,292,94
1459944,325,94
1459954,296,94
1459954,305,94
1459970,313,94
1459985,283,94
1459995,312,94
1460003,294,94
1460015,292,94
1460026,319,94
1460037,291,94
1460046,321,94
1460053,323,94
1460068,306,94
1460078,338,94
1460087,311,94
1460087,323,94
1460103,335,94
1460118,305,94
1460129,336,94
1460136,317,94
1460149,311,94
1460160,336,94
1460170,305,94
1460181,327,94
1460186,327,94
1460201,310,94
1460205,342,94
1460221,317,94
1460232,326,94
1460242,343,94
1460252,313,94
1460253,344,94
1460271,331,94
1460283,325,94
1460286,354,94
1460304,323,94
1460313,345,94
1460321,358,94
1460335,344,94
1460337,363,94
1460353,334,94
1460365,335,94
1460369,344,94
1460386,311,94
1460387,341,94
1460403,327,94
1460417,319,94
1460427,346,94
1460437,309,94
1460447,330,94
1460453,463,89
1460468,658,89
1460478,659,89
1460487,368,89
1460499,235,89
1460509,334,89
1460519,301,89
1460523,325,89
1460536,316,89
1460550,311,89
1460560,341,89
1460570,313,89
1460580,332,89
1460586,337,89
1460601,316,89
1460604,354,89
1460619,338,89
1460632,346,89
1460637,366,89
1460653,331,89
1460662,354,89
1460672,343,89
1460683,330,89
1460687,362,89
1460703,338,89
1460715,366,89
1460720,384,89
1460735,373,89
1460745,419,89
1460752,406,89
1460766,413,103
1460776,425,103
1460786,370,103
1460787,372,103
1460803,341,103
1460817,308,103
1460827,328,103
1460837,295,103
1460848,308,103
1460853,319,103
1460868,295,103
1460878,330,103
1460886,311,103
1460899,309,103
1460909,327,103
1460919,292,103
1460930,317,103
1460938,307,103
1460944,290,103
1460961,322,103
1460969,295,103
1460981,311,103
1460986,323,103
1461001,298,103
1461012,333,103
1461020,310,103
1461020,305,103
1461043,329,103
1461053,295,103
1461064,322,103
1461070,316,103
1461084,301,103
1461094,335,103
1461103,309,103
1461114,322,103
1461120,336,103
1461135,308,103
1461144,341,103
1461153,323,103
1461166,320,103
1461177,347,103
1461186,315,103
1461196,339,103
1461203,335,103
1461203,315,103
1461221,346,103
1461238,319,103
1461245,328,103
1461254,339,103
1461268,309,103
1461270,340,103
1461286,322,103
1461300,316,103
1461303,344,103
1461320,316,103
1461320,340,103
1461336,344,103
1461351,325,103
1461354,359,103
1461370,334,103
1461370,343,103
1461387,357,103
1461402,324,103
1461412,354,103
1461420,336,103
1461433,327,103
1461443,354,103
1461453,324,103
1461464,347,103
1461473,350,103
1461473,329,103
1461488,362,103
1461505,336,103
1461514,344,103
1461525,361,103
1461535,330,103
1461546,365,103
1461553,364,103
1461566,358,103
1461577,379,103
1461587,343,103
1461596,355,103
1461604,352,103
1461618,326,103
1461628,359,103
1461636,333,103
1461648,338,103
1461658,359,103
1461669,324,103
1461679,348,103
1461687,450,93
1461687,658,93
1461704,659,93
1461720,437,93
1461730,238,93
1461737,329,93
1461751,306,93
1461761,331,93
1461770,310,93
1461781,317,93
1461787,340,93
1461802,316,93
1461804,348,93
1461820,340,93
1461834,332,93
1461837,366,93
1461853,340,93
1461863,359,93
1461870,358,93
1461870,323,93
1461887,347,93
1461903,321,93
1461916,325,93
1461920,347,93
1461935,328,93
1461946,369,93
1461954,376,93
1461967,379,93
1461976,421,93
1461986,403,93
1461986,421,93
1462004,417,100
1462017,370,100
1462020,374,100
1462036,327,100
1462049,304,100
1462060,313,100
1462069,274,100
1462079,297,100
1462086,287,100
1462100,272,100
1462104,298,100
1462121,265,100
1462131,276,100
1462136,284,100
1462151,261,100
1462162,299,100
1462170,280,100
1462182,280,100
1462193,304,100
1462203,272,100
1462213,299,100
1462220,292,100
1462234,274,100
1462236,306,100
1462253,277,100
1462264,289,100
1462272,301,100
1462285,272,100
1462295,306,100
1462303,285,100
1462316,284,100
1462326,308,100
1462336,275,100
1462347,301,100
1462353,298,100
1462367,285,100
1462371,316,100
1462386,291,100
1462386,305,100
1462404,319,100
1462418,291,100
1462420,323,100
1462437,308,100
1462449,304,100
1462459,327,100
1462470,297,100
1462480,323,100
1462487,321,100
1462487,304,100
1462503,336,100
1462519,309,100
1462531,320,100
1462537,336,100
1462552,309,100
1462563,344,100
1462570,332,100
1462583,325,100
1462593,351,100
1462603,331,100
1462613,364,100
1462621,355,100
1462634,333,100
1462644,359,100
1462654,327,100
1462665,334,100
1462670,346,100
1462685,318,100
1462696,346,100
1462704,331,100
1462716,323,100
1462720,341,100
1462736,381,100
1462737,653,93
1462754,659,93
1462768,519,93
1462778,233,93
1462787,289,93
1462798,322,93
1462809,331,93
1462819,302,93
1462829,334,93
1462836,324,93
1462849,315,93
1462854,342,93
1462870,315,93
1462881,342,93
1462887,351,93
1462887,331,93
1462904,365,93
1462921,343,93
1462932,351,93
1462942,373,93
1462952,342,93
1462962,372,93
1462970,364,93
1462983,364,93
1462993,404,93
1463003,388,93
1463014,419,93
1463020,431,93
1463034,410,93
1463044,438,101
1463054,403,101
1463064,380,101
1463073,368,101
1463086,310,101
1463086,318,101
1463103,293,101
1463117,276,101
1463127,303,101
1463137,271,101
1463137,290,101
1463153,296,101
1463167,273,101
1463178,303,101
1463186,281,101
1463198,287,101
1463208,308,101
1463219,277,101
1463229,304,101
1463236,294,101
1463250,284,101
1463254,317,101
1463270,287,101
1463280,304,101
1463287,311,101
1463287,286,101
1463312,320,101
1463320,299,101
1463332,299,101
1463342,319,101
1463352,288,101
1463363,316,101
1463370,310,101
1463383,296,101
1463387,325,101
1463403,293,101
1463414,308,101
1463421,315,101
1463434,288,101
1463445,322,101
1463453,305,101
1463465,309,101
1463476,335,101
1463487,305,101
1463496,334,101
1463503,327,101
1463516,312,101
1463527,342,101
1463537,312,101
1463546,322,101
1463554,332,101
1463569,304,101
1463571,337,101
1463588,318,101
1463599,318,101
1463603,342,101
1463620,310,101
1463627,336,101
1463637,330,101
1463648,313,101
1463654,347,101
1463671,319,101
1463671,334,101
1463687,346,101
1463687,321,101
1463703,351,101
1463721,333,101
1463732,331,101
1463742,355,101
1463752,323,101
1463764,345,101
1463770,357,101
1463784,342,101
1463794,365,101
1463803,337,101
1463815,341,101
1463825,349,101
1463835,317,101
1463837,343,101
1463854,326,101
1463866,322,101
1463875,349,101
1463886,308,101
1463897,356,101
1463903,537,92
1463918,659,92
1463921,657,92
1463936,279,92
1463947,267,92
1463954,338,92
1463968,298,92
1463978,329,92
1463986,318,92
1464000,317,92
1464009,347,92
1464020,315,92
1464030,335,92
1464036,334,92
1464051,318,92
1464054,356,92
1464071,334,92
1464080,347,92
1464087,364,92
1464087,328,92
1464105,356,92
1464120,341,92
1464133,335,92
1464137,368,92
1464154,346,92
1464163,379,92
1464171,391,92
1464184,378,92
1464194,422,92
1464203,402,92
1464215,410,101
1464225,416,101
1464235,367,101
1464245,376,101
1464254,342,101
1464254,314,101
1464277,330,101
1464286,292,101
1464297,307,101
1464304,309,101
1464304,289,101
1464328,324,101
1464338,302,101
1464349,307,101
1464353,323,101
1464369,291,101
1464379,318,101
1464386,304,101
1464399,292,101
1464410,319,101
1464420,290,101
1464430,310,101
1464436,317,101
1464451,295,101
1464461,328,101
1464471,306,101
1464481,312,101
1464487,331,101
1464487,298,101
1464513,325,101
1464520,313,101
1464534,297,101
1464543,327,101
1464553,295,101
1464564,313,101
1464570,321,101
1464584,299,101
1464595,334,101
1464604,314,101
1464615,318,101
1464626,340,101
1464636,313,101
1464646,342,101
1464654,334,101
1464667,319,101
1464671,344,101
1464686,311,101
1464686,324,101
1464704,330,101
1464717,305,101
1464728,339,101
1464737,319,101
1464748,323,101
1464759,347,101
1464769,317,101
1464779,345,101
1464786,340,101
1464800,327,101
1464810,357,101
1464820,328,101
1464831,346,101
1464837,352,101
1464851,323,101
1464862,355,101
1464870,334,101
1464883,332,101
1464892,354,101
1464903,321,101
1464913,348,101
1464920,342,101
1464933,328,101
1464937,360,101
1464954,333,101
1464964,349,101
1464970,362,101
1464985,338,101
1464995,370,101
1465003,352,101
1465016,359,101
1465026,389,101
1465036,345,101
1465046,367,101
1465053,356,101
1465067,332,101
1465071,360,101
1465087,331,101
1465098,343,101
1465103,356,101
1465118,330,101
1465129,359,101
1465137,337,101
1465149,442,91
1465159,658,91
1465170,659,91
1465180,474,91
1465187,237,91
1465200,303,91
1465210,341,91
1465220,302,91
1465222,316,91
1465238,330,91
1465250,303,91
1465263,336,91
1465271,318,91
1465271,315,91
1465293,347,91
1465303,322,91
1465313,348,91
1465319,348,91
1465334,323,91
1465344,347,91
1465353,312,91
1465364,316,91
1465370,329,91
1465385,307,91
1465396,347,91
1465403,344,91
1465416,355,91
1465426,399,91
1465436,382,91
1465446,412,91
1465454,416,98
1465454,386,98
1465471,392,98
1465486,336,98
1465498,317,98
1465503,309,98
1465518,260,98
1465529,283,98
1465537,263,98
1465537,254,98
1465560,281,98
1465570,252,98
1465580,272,98
1465586,275,98
1465600,255,98
1465603,292,98
1465621,269,98
1465631,280,98
1465636,300,98
1465652,270,98
1465662,300,98
1465670,288,98
1465683,279,98
1465693,307,98
1465703,276,98
1465714,298,98
1465723,299,98
1465734,280,98
1465736,311,98
1465753,284,98
1465765,292,98
1465775,308,98
1465785,276,98
1465787,308,98
1465804,298,98
1465816,290,98
1465827,322,98
1465836,296,98
1465848,315,98
1465853,319,98
1465868,301,98
1465877,335,98
1465886,314,98
1465898,320,98
1465904,338,98
1465919,310,98
1465929,338,98
1465937,325,98
1465937,313,98
1465954,344,98
1465969,317,98
1465980,336,98
1465987,344,98
1466001,322,98
1466011,355,98
1466022,334,98
1466032,333,98
1466037,357,98
1466052,340,98
1466062,365,98
1466069,351,98
1466083,335,98
1466094,356,98
1466103,324,98
1466113,339,98
1466121,346,98
1466134,318,98
1466144,351,98
1466153,328,98
1466166,320,98
1466175,359,98
1466186,509,104
1466196,659,104
1466203,657,104
1466217,267,104
1466221,282,104
1466236,311,104
1466241,324,104
1466254,328,104
1466268,304,104
1466278,337,104
1466286,318,104
1466299,319,104
1466303,339,104
1466320,313,104
1466329,345,104
1466337,343,104
1466350,334,104
1466353,366,104
1466370,337,104
1466381,353,104
1466386,364,104
1466402,337,104
1466411,372,104
1466421,360,104
1466432,370,104
1466442,406,104
1466452,390,104
1466463,428,104
1466470,429,104
1466483,417,104
1466494,439,104
1466504,388,104
1466504,373,104
1466520,355,104
1466535,306,104
1466537,320,104
1466554,290,104
1466565,284,104
1466575,308,104
1466586,275,104
1466597,302,104
1466604,293,104
1466616,274,104
1466627,305,104
1466636,276,104
1466648,292,104
1466654,303,104
1466654,276,104
1466679,310,104
1466688,293,104
1466700,294,104
1466706,320,104
1466719,291,104
1466730,318,104
1466737,316,104
1466751,299,104
1466760,330,104
1466770,301,104
1466773,313,104
1466787,324,104
1466802,295,104
1466813,326,104
1466819,305,104
1466833,297,104
1466836,319,104
1466853,285,104
1466863,306,104
1466870,306,104
1466883,289,104
1466894,323,104
1466903,301,104
1466915,317,104
1466924,335,104
1466935,309,104
1466945,341,104
1466953,323,104
1466966,313,104
1466976,338,104
1466987,306,104
1466996,327,104
1467003,324,104
1467017,304,104
1467028,338,104
1467036,313,104
1467049,324,104
1467054,338,104
1467069,308,104
1467079,342,104
1467086,323,104
1467099,317,104
1467104,343,104
1467120,313,104
1467131,337,104
1467137,335,104
1467151,309,104
1467161,349,104
1467170,322,104
1467182,332,104
1467187,347,104
1467203,315,104
1467203,350,104
1467220,347,104
1467232,331,104
1467243,356,104
1467253,321,104
1467264,336,104
1467270,335,104
1467285,313,104
1467294,345,104
1467304,316,104
1467315,322,104
1467325,338,104
1467336,297,104
1467337,409,106
1467354,633,106
1467354,659,106
1467370,537,106
1467386,212,106
1467397,312,106
1467403,328,106
1467417,294,106
1467428,326,106
1467436,305,106
1467448,313,106
1467454,332,106
1467468,302,106
1467479,332,106
1467486,325,106
1467500,322,106
1467510,359,106
1467520,335,106
1467530,361,106
1467537,361,106
1467551,331,106
1467562,358,106
1467570,331,106
1467582,335,106
1467588,356,106
1467602,332,106
1467613,376,106
1467620,382,106
1467633,388,106
1467644,428,106
1467653,404,106
1467663,418,106
1467671,405,106
1467685,354,106
1467695,363,106
1467704,320,106
1467716,312,106
1467726,328,106
1467735,294,106
1467746,325,106
1467753,317,106
1467766,306,106
1467774,337,106
1467787,303,106
1467798,316,106
1467804,318,106
1467804,289,106
1467828,320,106
1467837,299,106
1467849,302,106
1467859,330,106
1467870,307,106
1467880,341,106
1467887,338,106
1467887,325,106
1467911,354,106
1467920,318,106
1467931,331,106
1467937,336,106
1467952,306,106
1467962,339,106
1467970,316,106
1467981,318,106
1467993,339,106
1468003,310,106
1468004,339,106
1468022,338,106
1468034,329,106
1468038,361,106
1468054,335,106
1468054,349,106
1468075,355,106
1468085,325,106
1468095,359,106
1468104,331,106
1468115,333,106
1468126,351,106
1468136,322,106
1468147,347,106
1468153,341,106
1468168,322,106
1468173,355,106
1468187,325,106
1468198,338,106
1468204,348,106
1468218,320,106
1468229,353,106
1468238,333,106
1468238,329,106
1468260,352,106
1468270,320,106
1468270,343,106
1468286,335,106
1468301,317,106
1468311,347,106
1468320,318,106
1468332,329,106
1468342,340,106
1468352,313,106
1468354,343,106
1468370,321,106
1468383,316,106
1468393,347,106
1468403,327,106
1468404,342,106
1468420,332,106
1468434,308,106
1468444,329,106
1468454,300,106
1468465,310,106
1468470,318,106
1468486,293,106
1468495,323,106
1468503,304,106
1468512,293,106
1468527,409,103
1468536,639,103
1468547,659,103
1468554,443,103
1468568,177,103
1468578,300,103
1468587,287,103
1468587,291,103
1468604,306,103
1468619,276,103
1468629,310,103
1468636,297,103
1468649,294,103
1468653,324,103
1468670,298,103
1468681,325,103
1468687,325,103
1468701,307,103
1468711,340,103
1468720,318,103
1468726,331,103
1468736,347,103
1468753,323,103
1468762,364,103
1468771,361,103
1468771,366,103
1468793,407,103
1468803,390,103
1468813,425,103
1468820,428,103
1468820,408,103
1468845,430,103
1468854,379,103
1468866,357,103
1468873,346,103
1468885,294,103
1468896,308,103
1468903,288,103
1468917,280,103
1468927,307,103
1468936,277,103
1468947,301,103
1468954,302,103
1468968,282,103
1468979,319,103
1468987,295,103
1468987,303,103
1469009,323,103
1469019,296,103
1469030,330,103
1469037,316,103
1469050,308,103
1469061,334,103
1469070,304,103
1469080,325,103
1469091,326,103
1469101,304,103
1469103,339,103
1469119,313,103
1469133,318,103
1469137,333,103
1469153,302,103
1469163,330,103
1469170,316,103
1469183,305,103
1469188,336,103
1469203,306,103
1469214,329,103
1469224,334,103
1469224,311,103
1469245,345,103
1469254,321,103
1469261,328,103
1469270,344,103
1469286,314,103
1469296,341,103
1469303,324,103
1469317,309,103
1469327,336,103
1469336,306,103
1469347,326,103
1469355,332,103
1469368,310,103
1469378,344,103
1469387,317,103
1469387,324,103
1469409,357,103
1469419,326,103
1469430,349,103
1469437,337,103
1469450,320,103
1469461,346,103
1469470,312,103
1469481,328,103
1469487,330,103
1469487,305,103
1469512,337,103
1469520,305,103
1469533,318,103
1469543,504,106
1469553,658,106
1469564,657,106
1469570,294,106
1469584,238,106
1469595,336,106
1469604,298,106
1469604,308,106
1469620,315,106
1469635,293,106
1469637,326,106
1469654,302,106
1469667,305,106
1469672,329,106
1469686,305,106
1469686,339,106
1469705,336,106
1469717,329,106
1469727,362,106
1469736,330,106
1469736,343,106
1469755,351,106
1469769,326,106
1469779,362,106
1469787,348,106
1469799,359,106
1469804,392,106
1469820,371,106
1469830,408,106
1469837,405,106
1469851,388,106
1469861,403,106
1469870,347,106
1469882,337,106
1469887,324,106
1469887,282,106
1469912,306,106
1469920,284,106
1469933,284,106
1469943,310,106
1469953,278,106
1469964,302,106
1469970,295,106
1469984,278,106
1469994,309,106
1470003,281,106
1470015,296,106
1470025,308,106
1470035,283,106
1470045,319,106
1470055,298,106
1470066,298,106
1470070,323,106
1470087,296,106
1470097,324,106
1470104,318,106
1470118,302,106
1470128,335,106
1470136,304,106
1470149,317,106
1470155,328,106
1470169,295,106
1470176,326,106
1470188,306,106
1470200,304,106
1470203,328,106
1470221,298,106
1470230,326,106
1470240,327,106
1470251,315,106
1470256,352,106
1470271,327,106
1470280,341,106
1470288,351,106
1470302,324,106
1470304,353,106
1470320,330,106
1470320,324,106
1470344,346,106
1470353,311,106
1470364,337,106
1470370,337,106
1470384,320,106
1470395,354,106
1470403,330,106
1470416,343,106
1470425,357,106
1470435,327,106
1470445,359,106
1470456,342,106
1470467,336,106
1470477,360,106
1470486,331,106
1470497,354,106
1470504,350,106
1470504,328,106
1470521,357,106
1470537,328,106
1470537,336,106
1470556,349,106
1470570,318,106
1470580,349,106
1470587,334,106
1470587,332,106
1470603,361,106
1470621,331,106
1470631,356,106
1470637,353,106
1470652,331,106
1470662,369,106
1470670,353,106
1470682,352,106
1470693,362,106
1470702,329,106
1470713,353,106
1470723,335,106
1470723,324,106
1470744,350,106
1470754,318,106
1470763,341,106
1470770,340,106
1470785,309,106
1470786,425,106
1470804,635,106
1470804,659,106
1470826,540,106
1470835,208,106
1470847,320,106
1470856,319,106
1470867,298,106
1470877,328,106
1470886,299,106
1470898,324,106
1470908,325,106
1470918,302,106
1470929,337,106
1470937,314,106
1470949,328,106
1470959,352,106
1470970,328,106
1470980,361,106
1470987,344,106
1471001,329,106
1471011,353,106
1471020,322,106
1471031,344,106
1471037,349,106
1471052,336,106
1471056,382,106
1471071,371,106
1471080,392,106
1471093,420,106
1471103,394,106
1471113,423,106
1471120,392,106
1471134,358,106
1471137,363,106
1471154,311,106
1471165,316,106
1471175,312,106
1471186,288,106
1471193,320,106
1471204,295,106
1471216,302,106
1471220,319,106
1471237,286,106
1471247,313,106
1471256,300,106
1471267,289,106
1471278,316,106
1471286,286,106
1471298,306,106
1471303,312,106
1471319,292,106
1471328,329,106
1471337,308,106
1471337,314,106
1471357,333,106
1471369,297,106
1471381,326,106
1471391,315,106
1471401,304,106
1471411,335,106
1471420,307,106
1471431,328,106
1471442,330,106
1471452,305,106
1471462,338,106
1471470,314,106
1471482,318,106
1471493,337,106
1471503,309,106
1471514,339,106
1471521,329,106
1471521,320,106
1471545,348,106
1471553,317,106
1471564,336,106
1471570,343,106
1471586,321,106
1471588,351,106
1471604,324,106
1471617,325,106
1471627,343,106
1471637,309,106
1471637,337,106
1471657,329,106
1471668,321,106
1471670,355,106
1471687,326,106
1471699,345,106
1471703,352,106
1471719,321,106
1471720,352,106
1471737,323,106
1471737,321,106
1471758,338,106
1471771,304,106
1471780,329,106
1471786,321,106
1471801,306,106
1471803,336,106
1471820,308,106
1471829,323,106
1471837,331,106
1471853,308,106
1471863,345,106
1471870,319,106
1471883,321,106
1471894,356,106
1471903,324,106
1471914,343,106
1471924,334,106
1471935,312,106
1471945,336,106
1471953,305,106
1471966,321,106
1471975,328,106
1471986,298,106
1471996,332,106
1472003,299,106
1472017,343,106
1472027,586,102
1472037,659,102
1472048,604,102
1472058,215,102
1472068,252,102
1472078,322,102
1472087,286,102
1472092,299,102
1472110,308,102
1472119,287,102
1472120,319,102
1472137,302,102
1472150,304,102
1472160,329,102
1472170,302,102
1472182,333,102
1472187,329,102
1472202,314,102
1472203,347,102
1472220,319,102
1472230,335,102
1472240,349,102
1472252,330,102
1472263,372,102
1472270,366,102
1472284,378,102
1472288,414,102
1472304,395,102
1472315,429,102
1472320,425,102
1472335,403,102
1472346,413,102
1472353,353,102
1472366,337,102
1472376,321,102
1472386,275,102
1472397,298,102
1472403,277,102
1472403,276,102
1472420,300,102
1472437,270,102
1472448,301,102
1472457,299,102
1472468,282,102
1472479,315,102
1472487,288,102
1472499,302,102
1472509,312,102
1472520,284,102
1472525,318,102
1472536,298,102
1472536,294,102
1472561,318,102
1472570,286,102
1472582,316,102
1472588,313,102
1472588,295,102
1472612,325,102
1472620,297,102
1472633,306,102
1472637,318,102
1472653,289,102
1472664,318,102
1472670,299,102
1472684,294,102
1472687,323,102
1472705,296,102
1472713,321,102
1472721,323,102
1472735,306,102
1472745,341,102
1472753,314,102
1472765,325,102
1472777,336,102
1472786,304,102
1472797,335,102
1472804,318,102
1472818,313,102
1472825,339,102
1472837,306,102
1472848,331,102
1472859,331,102
1472869,312,102
1472879,346,102
1472887,319,102
1472887,331,102
1472904,345,102
1472921,321,102
1472931,365,102
1472937,347,102
1472951,336,102
1472961,360,102
1472970,318,102
1472982,338,102
1472992,332,102
1473002,314,102
1473013,347,102
1473022,319,102
1473022,327,102
1473037,334,102
1473053,325,102
1473064,536,104
1473070,659,104
1473084,655,104
1473095,290,104
1473103,240,104
1473115,326,104
1473125,316,104
1473136,293,104
1473137,328,104
1473153,303,104
1473167,311,104
1473173,327,104
1473187,297,104
1473187,330,104
1473204,319,104
1473218,316,104
1473219,349,104
1473237,322,104
1473237,349,104
1473260,350,104
1473270,328,104
1473279,362,104
1473287,340,104
1473287,354,104
1473310,381,104
1473320,362,104
1473331,405,104
1473337,402,104
1473352,403,104
1473362,432,104
1473369,397,104
1473383,400,104
1473392,374,104
1473403,325,104
1473413,334,104
1473420,294,104
1473420,293,104
1473444,309,104
1473454,276,104
1473465,307,104
1473471,293,104
1473471,283,104
1473495,310,104
1473503,276,104
1473512,297,104
1473526,300,104
1473536,282,104
1473547,318,104
1473554,293,104
1473566,300,104
1473577,317,104
1473586,285,104
1473598,316,104
1473603,303,104
1473619,292,104
1473628,321,104
1473636,288,104
1473649,306,104
1473659,307,104
1473670,284,104
1473681,315,104
1473687,289,104
1473700,296,104
1473710,314,104
1473720,282,104
1473720,315,104
1473737,305,104
1473751,299,104
1473759,331,104
1473770,302,104
1473782,323,104
1473793,328,104
1473803,307,104
1473813,340,104
1473823,314,104
1473834,319,104
1473844,336,104
1473854,303,104
1473865,333,104
1473875,321,104
1473885,310,104
1473896,339,104
1473904,310,104
1473916,331,104
1473923,337,104
1473936,316,104
1473946,349,104
1473955,325,104
1473967,332,104
1473977,350,104
1473986,319,104
1473999,347,104
1474008,338,104
1474019,326,104
1474029,356,104
1474036,324,104
1474049,340,104
1474059,344,104
1474070,320,104
1474080,354,104
1474086,329,104
1474100,331,104
1474111,352,104
1474120,318,104
1474132,352,104
1474142,359,104
1474152,345,104
1474162,369,104
1474170,337,104
1474182,344,104
1474193,347,104
1474203,317,104
1474214,349,104
1474220,321,104
1474234,322,104
1474237,340,104
1474253,299,104
1474265,376,104
1474270,575,90
1474286,659,90
1474296,639,90
1474304,234,90
1474304,291,90
1474327,337,90
1474337,300,90
1474337,333,90
1474353,313,90
1474368,321,90
1474378,344,90
1474387,315,90
1474398,343,90
1474409,336,90
1474419,328,90
1474429,363,90
1474437,337,90
1474449,358,90
1474460,365,90
1474470,334,90
1474481,360,90
1474486,336,90
1474501,340,90
1474511,369,90
1474520,347,90
1474522,387,90
1474542,393,90
1474553,392,90
1474562,434,90
1474570,411,90
1474584,427,99
1474594,418,99
1474604,366,99
1474604,372,99
1474620,327,99
1474630,313,99
1474638,328,99
1474653,294,99
1474666,323,99
1474676,314,99
1474686,302,99
1474696,333,99
1474704,301,99
1474717,316,99
1474727,320,99
1474737,292,99
1474748,323,99
1474754,301,99
1474768,301,99
1474778,323,99
1474787,294,99
1474799,323,99
1474809,316,99
1474820,304,99
1474829,338,99
1474837,309,99
1474849,326,99
1474860,336,99
1474869,311,99
1474874,343,99
1474887,322,99
1474887,324,99
1474904,344,99
1474920,313,99
1474920,337,99
1474937,329,99
1474953,314,99
1474963,347,99
1474970,319,99
1474970,335,99
1474994,344,99
1475003,319,99
1475015,352,99
1475020,334,99
1475036,334,99
1475036,359,99
1475053,326,99
1475065,353,99
1475072,345,99
1475077,329,99
1475087,356,99
1475104,326,99
1475114,338,99
1475127,347,99
1475137,320,99
1475148,355,99
1475153,336,99
1475168,340,99
1475177,366,99
1475187,332,99
1475199,359,99
1475203,351,99
1475219,327,99
1475230,354,99
1475237,323,99
1475237,334,99
1475261,342,99
1475270,314,99
1475281,346,99
1475287,324,99
1475287,326,99
1475312,350,99
1475320,319,99
1475320,357,99
1475344,353,99
1475353,326,99
1475363,350,99
1475371,310,99
1475371,317,99
1475394,324,99
1475404,293,99
1475414,322,99
1475420,303,99
1475435,302,99
1475446,314,99
1475454,323,99
1475466,561,90
1475477,658,90
1475487,587,90
1475497,216,90
1475503,242,90
1475517,296,90
1475528,295,90
1475537,269,90
1475537,303,90
1475553,284,90
1475569,282,90
1475578,309,90
1475586,281,90
1475599,311,90
1475610,313,90
1475620,301,90
1475630,335,90
1475637,307,90
1475637,322,90
1475661,335,90
1475670,312,90
1475670,347,90
1475687,333,90
1475702,343,90
1475712,381,90
1475720,362,90
1475733,401,90
1475743,408,90
1475754,399,90
1475764,434,90
1475774,400,90
1475785,390,90
1475794,370,90
1475804,312,90
1475804,318,90
1475821,279,90
1475830,267,90
1475846,287,90
1475854,254,90
1475863,283,90
1475870,281,90
1475886,267,90
1475896,300,90
1475907,272,90
1475917,286,90
1475928,298,90
1475936,270,90
1475949,306,90
1475954,291,90
1475969,289,90
1475974,315,90
1475986,288,90
1476000,316,90
1476004,312,90
1476019,296,90
1476025,330,90
1476037,303,90
1476037,314,90
1476062,327,90
1476070,298,90
1476082,327,90
1476087,311,90
1476103,309,90
1476113,333,90
1476120,305,90
1476133,334,90
1476144,331,90
1476154,315,90
1476164,348,90
1476171,322,90
1476185,334,90
1476195,348,90
1476203,321,90
1476216,352,90
1476226,336,90
1476236,329,90
1476237,351,90
1476254,319,90
1476267,345,90
1476270,340,90
1476287,322,90
1476298,356,90
1476304,342,90
1476304,361,90
1476329,365,90
1476338,336,90
1476349,359,90
1476359,335,90
1476369,330,90
1476379,351,90
1476387,319,90
1476387,340,90
1476411,340,90
1476421,320,90
1476431,345,90
1476437,413,87
1476452,657,87
1476462,659,87
1476471,461,87
1476482,231,87
1476493,301,87
1476503,313,87
1476514,329,87
1476521,298,87
1476534,326,87
1476544,325,87
1476553,307,87
1476562,340,87
1476572,315,87
1476585,331,87
1476596,348,87
1476603,321,87
1476616,354,87
1476626,340,87
1476637,338,87
1476647,361,87
1476653,329,87
1476667,355,87
1476673,353,87
1476687,342,87
1476697,385,87
1476704,372,87
1476718,395,87
1476729,420,87
1476737,395,87
1476749,425,87
1476760,395,87
1476770,364,87
1476780,358,87
1476788,297,87
1476788,300,87
1476811,285,87
1476820,259,87
1476832,288,87
1476837,262,87
1476852,274,87
1476862,288,87
1476870,259,87
1476882,290,87
1476894,272,87
1476903,268,87
1476914,295,87
1476920,266,87
1476934,293,87
1476944,292,87
1476953,274,87
1476965,311,87
1476971,287,87
1476986,299,87
1476996,315,87
1477004,285,87
1477015,317,87
1477027,299,87
1477037,293,87
1477048,316,87
1477054,284,87
1477068,309,87
1477078,307,87
1477086,288,87
1477098,318,87
1477109,289,87
1477119,300,87
1477129,313,87
1477136,285,87
1477150,320,87
1477160,307,87
1477170,308,87
1477181,337,87
1477186,306,87
1477201,332,87
1477211,328,87
1477221,308,87
1477221,338,87
1477238,309,87
1477252,318,87
1477263,331,87
1477270,303,87
1477283,336,87
1477293,322,87
1477303,321,87
1477313,351,87
1477320,320,87
1477334,344,87
1477336,344,87
1477354,323,87
1477365,355,87
1477376,328,87
1477386,336,87
1477388,350,87
1477404,319,87
1477417,348,87
1477423,331,87
1477436,326,87
1477439,350,87
1477453,317,87
1477463,340,87
1477478,342,87
1477487,322,87
1477499,357,87
1477509,336,87
1477520,360,87
1477529,368,87
1477536,336,87
1477549,364,87
1477561,340,87
1477570,331,87
1477581,352,87
1477591,320,87
1477601,338,87
1477612,333,87
1477620,311,87
1477620,332,87
1477636,365,87
1477653,600,87
1477663,659,87
1477671,599,87
1477671,257,87
1477688,300,87
1477704,325,87
1477714,337,87
1477719,307,87
1477735,334,87
1477745,336,87
1477754,316,87
1477766,348,87
1477776,319,87
1477786,331,87
1477797,350,87
1477803,327,87
1477817,361,87
1477827,349,87
1477837,337,87
1477837,357,87
1477853,320,87
1477868,347,87
1477879,352,87
1477887,340,87
1477899,385,87
1477909,370,87
1477920,394,87
1477930,424,87
1477937,404,87
1477950,442,87
1477960,422,87
1477971,400,87
1477981,398,87
1477986,339,87
1478002,339,87
1478012,322,87
1478020,292,87
1478032,322,87
1478043,296,87
1478053,308,87
1478063,325,87
1478070,294,87
1478084,323,87
1478095,302,87
1478104,292,87
1478115,316,87
1478121,283,87
1478121,307,87
1478146,309,87
1478153,290,87
1478166,327,87
1478171,306,87
1478187,318,87
1478197,333,87
1478207,302,87
1478213,328,87
1478220,308,87
1478235,301,87
1478235,326,87
1478258,294,87
1478266,317,87
1478278,319,87
1478289,301,87
1478297,336,87
1478309,310,87
1478320,320,87
1478330,336,87
1478341,307,87
1478348,335,87
1478361,318,87
1478367,312,87
1478380,337,87
1478392,307,87
1478398,331,87
1478398,332,87
1478423,312,87
1478431,347,87
1478443,318,87
1478453,324,87
1478464,337,87
1478471,306,87
1478481,335,87
1478488,318,87
1478505,312,87
1478514,339,87
1478525,308,87
1478531,336,87
1478546,340,87
1478547,321,87
1478565,356,87
1478577,331,87
1478587,337,87
1478597,349,87
1478607,312,87
1478614,337,87
1478620,318,87
1478630,309,87
1478647,335,87
1478659,304,87
1478669,327,87
1478679,330,87
1478689,313,87
1478697,349,87
1478710,324,87
1478718,334,87
1478730,348,87
1478741,316,87
1478748,344,87
1478748,327,87
1478772,319,87
1478781,342,87
1478792,311,87
1478802,347,87
1478813,355,87
1478823,326,87
1478830,357,87
1478843,328,87
1478853,330,87
1478863,343,87
1478875,312,87
1478880,341,87
1478895,322,87
1478905,313,87
1478914,334,87
1478925,308,87
1478931,471,86
1478946,659,86
1478957,658,86
1478965,361,86
1478977,228,86
