Timestamp,ECGValue,BPM
1506161,338,114
1506171,466,117
1506181,658,117
1506182,657,117
1506198,277,117
1506213,250,117
1506223,304,117
1506232,291,117
1506242,313,117
1506248,286,117
1506264,314,117
1506273,319,117
1506282,300,117
1506294,334,117
1506305,311,117
1506315,322,117
1506325,346,117
1506332,320,117
1506346,352,117
1506356,341,117
1506365,329,117
1506376,355,117
1506382,324,117
1506397,344,117
1506408,346,117
1506415,329,117
1506428,373,117
1506438,361,117
1506449,378,117
1506459,408,117
1506467,384,117
1506479,412,117
1506490,385,117
1506498,348,117
1506510,352,117
1506520,301,117
1506531,305,117
1506541,303,117
1506548,278,117
1506548,312,117
1506565,292,117
1506582,296,117
1506592,316,117
1506598,284,117
1506612,313,117
1506623,304,117
1506631,292,117
1506643,323,117
1506649,289,117
1506665,308,117
1506666,310,117
1506682,286,117
1506695,323,117
1506705,301,117
1506715,303,117
1506726,325,117
1506736,293,117
1506746,324,117
1506756,316,117
1506766,303,117
1506777,333,117
1506787,303,117
1506797,320,117
1506808,327,117
1506815,302,117
1506828,332,117
1506839,309,117
1506849,311,117
1506859,331,117
1506864,300,117
1506880,330,117
1506890,323,117
1506899,310,117
1506899,340,117
1506916,309,117
1506925,325,117
1506941,331,117
1506948,304,117
1506948,337,117
1506964,317,117
1506981,317,117
1506993,339,117
1507003,310,117
1507014,338,117
1507023,331,117
1507032,320,117
1507032,353,117
1507054,324,117
1507064,341,117
1507075,347,117
1507082,319,117
1507095,350,117
1507105,327,117
1507115,326,117
1507126,348,117
1507132,315,117
1507147,342,117
1507157,334,117
1507165,317,117
1507167,347,117
1507181,317,117
1507197,330,117
1507199,341,117
1507215,321,117
1507229,367,117
1507239,344,117
1507248,341,117
1507259,362,117
1507270,322,117
1507280,343,117
1507291,335,117
1507298,315,117
1507311,344,117
1507322,314,117
1507332,327,117
1507341,326,117
1507348,331,117
1507362,553,111
1507366,659,111
1507382,634,111
1507394,264,111
1507403,259,111
1507414,333,111
1507424,317,111
1507432,300,111
1507445,337,111
1507454,308,111
1507464,323,111
1507475,334,111
1507482,305,111
1507495,338,111
1507506,325,111
1507515,327,111
1507526,356,111
1507537,327,111
1507547,348,111
1507557,336,111
1507567,312,111
1507567,341,111
1507581,314,111
1507598,331,111
1507609,355,111
1507615,342,111
1507624,394,111
1507639,391,111
1507648,403,111
1507660,439,111
1507667,408,111
1507681,420,111
1507691,393,111
1507699,346,111
1507711,357,111
1507715,314,111
1507732,313,111
1507742,326,111
1507748,298,111
1507763,330,111
1507768,312,111
1507782,304,111
1507792,324,111
1507798,290,111
1507814,311,111
1507824,311,111
1507832,296,111
1507844,331,111
1507849,302,111
1507866,313,111
1507868,328,111
1507882,298,111
1507895,330,111
1507906,313,111
1507915,304,111
1507927,326,111
1507937,292,111
1507947,315,111
1507958,314,111
1507964,292,111
1507978,323,111
1507988,295,111
1507998,303,111
1508008,318,111
1508017,290,111
1508029,322,111
1508032,305,111
1508049,294,111
1508049,318,111
1508065,287,111
1508080,309,111
1508090,309,111
1508098,289,111
1508112,322,111
1508122,295,111
1508132,300,111
1508142,314,111
1508148,282,111
1508148,313,111
1508173,298,111
1508181,288,111
1508193,316,111
1508198,286,111
1508213,308,111
1508224,310,111
1508231,293,111
1508244,325,111
1508249,301,111
1508265,310,111
1508276,328,111
1508282,295,111
1508296,325,111
1508306,326,111
1508315,323,111
1508327,342,111
1508337,309,111
1508348,319,111
1508358,319,111
1508368,298,111
1508368,328,111
1508382,300,111
1508399,305,111
1508399,323,111
1508415,284,111
1508430,319,111
1508440,464,109
1508449,658,109
1508449,657,109
1508466,255,109
1508481,233,109
1508492,309,109
1508498,291,109
1508512,323,109
1508522,304,109
1508531,315,109
1508543,340,109
1508553,310,109
1508563,342,109
1508574,342,109
1508581,339,109
1508594,373,109
1508604,349,109
1508615,372,109
1508625,383,109
1508631,363,109
1508646,400,109
1508656,379,109
1508665,387,109
1508676,415,109
1508682,398,109
1508682,442,109
1508707,447,109
1508715,449,109
1508727,488,109
1508732,463,109
1508748,473,109
1508758,458,109
1508765,400,109
1508779,398,109
1508790,351,109
1508799,332,109
1508810,342,109
1508816,306,109
1508816,333,109
1508840,325,109
1508849,313,109
1508860,341,109
1508864,311,109
1508881,327,109
1508892,335,109
1508898,309,109
1508912,340,109
1508923,320,109
1508932,322,109
1508943,345,109
1508948,311,109
1508963,339,109
1508974,329,109
1508981,317,109
1508994,347,109
1509004,315,109
1509015,327,109
1509016,332,109
1509032,305,109
1509032,334,109
1509056,309,109
1509065,308,109
1509077,325,109
1509081,290,109
1509096,317,109
1509107,309,109
1509114,293,109
1509128,326,109
1509138,299,109
1509148,315,109
1509148,325,109
1509164,297,109
1509179,329,109
1509189,307,109
1509199,305,109
1509209,328,109
1509220,294,109
1509231,319,109
1509241,310,109
1509249,293,109
1509249,325,109
1509272,297,109
1509281,312,109
1509292,326,109
1509298,297,109
1509313,331,109
1509323,327,109
1509332,331,109
1509343,346,109
1509348,310,109
1509364,326,109
1509374,315,109
1509382,297,109
1509394,328,109
1509398,299,109
1509415,311,109
1509425,318,109
1509431,287,109
1509446,318,109
1509457,426,112
1509465,657,112
1509476,658,112
1509482,328,112
1509498,228,112
1509508,304,112
1509515,286,112
1509528,311,112
1509532,283,112
1509548,297,112
1509549,309,112
1509566,280,112
1509580,309,112
1509582,296,112
1509599,298,112
1509611,331,112
1509616,304,112
1509631,336,112
1509641,337,112
1509649,316,112
1509661,346,112
1509672,319,112
1509682,328,112
1509682,343,112
1509699,324,112
1509699,367,112
1509723,363,112
1509732,372,112
1509732,408,112
1509754,382,112
1509764,405,112
1509775,391,112
1509782,347,112
1509795,354,112
1509799,305,112
1509815,299,112
1509827,305,112
1509832,274,112
1509847,307,112
1509856,295,112
1509865,291,112
1509871,320,112
1509881,289,112
1509898,311,112
1509899,307,112
1509915,286,112
1509929,317,112
1509938,289,112
1509948,294,112
1509960,307,112
1509965,277,112
1509979,310,112
1509982,298,112
1509999,296,112
1510011,327,112
1510016,299,112
1510031,323,112
1510042,322,112
1510048,301,112
1510063,334,112
1510073,305,112
1510082,313,112
1510092,329,112
1510099,299,112
1510113,330,112
1510124,317,112
1510132,309,112
1510145,338,112
1510155,309,112
1510165,332,112
1510175,336,112
1510182,315,112
1510196,348,112
1510206,324,112
1510215,331,112
1510226,347,112
1510236,314,112
1510247,343,112
1510257,329,112
1510265,323,112
1510278,351,112
1510288,318,112
1510298,342,112
1510308,344,112
1510314,323,112
1510329,355,112
1510332,330,112
1510349,336,112
1510349,353,112
1510370,323,112
1510380,356,112
1510391,343,112
1510399,333,112
1510399,361,112
1510415,328,112
1510431,346,112
1510442,348,112
1510449,324,112
1510449,355,112
1510467,331,112
1510482,337,112
1510493,357,112
1510504,327,112
1510514,357,112
1510524,356,112
1510531,353,112
1510544,382,112
1510555,345,112
1510565,359,112
1510575,358,112
1510581,330,112
1510595,360,112
1510606,334,112
1510616,335,112
1510626,352,112
1510637,320,112
1510647,341,112
1510649,350,112
1510666,516,109
1510678,659,109
1510687,657,109
1510698,300,109
1510709,285,109
1510716,320,109
1510724,338,109
1510740,310,109
1510748,314,109
1510760,334,109
1510770,306,109
1510781,336,109
1510791,331,109
1510799,324,109
1510812,361,109
1510820,335,109
1510832,358,109
1510832,365,109
1510849,335,109
1510862,360,109
1510865,330,109
1510881,329,109
1510893,349,109
1510904,323,109
1510914,359,109
1510924,364,109
1510932,369,109
1510944,414,109
1510955,397,109
1510964,423,109
1510976,430,109
1510982,394,109
1510995,399,109
1511006,351,109
1511015,331,109
1511027,335,109
1511038,296,109
1511048,320,109
1511058,310,109
1511065,293,109
1511078,320,109
1511089,288,109
1511098,297,109
1511109,300,109
1511115,270,109
1511130,305,109
1511139,288,109
1511148,292,109
1511160,317,109
1511171,288,109
1511181,315,109
1511191,306,109
1511199,291,109
1511211,319,109
1511222,286,109
1511231,297,109
1511243,305,109
1511248,278,109
1511264,314,109
1511273,293,109
1511282,292,109
1511294,312,109
1511304,282,109
1511315,308,109
1511325,301,109
1511331,284,109
1511345,314,109
1511355,287,109
1511365,302,109
1511376,313,109
1511382,290,109
1511382,325,109
1511399,307,109
1511416,306,109
1511426,328,109
1511437,295,109
1511447,321,109
1511458,313,109
1511465,294,109
1511478,324,109
1511489,295,109
1511499,312,109
1511509,322,109
1511518,296,109
1511530,331,109
1511532,311,109
1511549,312,109
1511549,336,109
1511565,305,109
1511581,330,109
1511591,325,109
1511599,308,109
1511612,339,109
1511622,314,109
1511631,327,109
1511642,336,109
1511649,321,109
1511664,366,109
1511674,341,109
1511682,336,109
1511682,358,109
1511705,320,109
1511715,341,109
1511725,335,109
1511732,317,109
1511745,348,109
1511756,320,109
1511765,330,109
1511776,335,109
1511782,392,109
1511797,657,106
1511807,659,106
1511818,481,106
1511818,237,106
1511833,293,106
1511848,334,106
1511859,324,106
1511865,308,106
1511880,341,106
1511889,316,106
1511899,327,106
1511899,342,106
1511916,319,106
1511930,357,106
1511941,345,106
1511948,343,106
1511948,369,106
1511964,341,106
1511982,369,106
1511992,369,106
1511999,351,106
1512012,385,106
1512023,361,106
1512032,382,106
1512043,408,106
1512053,393,106
1512064,436,106
1512075,428,106
1512081,430,106
1512094,457,106
1512100,414,106
1512115,411,106
1512125,376,106
1512132,328,106
1512146,336,106
1512157,290,106
1512165,289,106
1512177,301,106
1512187,270,106
1512197,302,106
1512208,287,106
1512215,280,106
1512228,306,106
1512232,274,106
1512248,298,106
1512259,300,106
1512264,282,106
1512280,313,106
1512290,286,106
1512299,294,106
1512309,311,106
1512320,280,106
1512330,312,106
1512332,300,106
1512348,296,106
1512362,327,106
1512365,298,106
1512381,319,106
1512392,315,106
1512400,289,106
1512400,318,106
1512416,288,106
1512432,296,106
1512444,310,106
1512454,280,106
1512464,314,106
1512475,303,106
1512481,300,106
1512494,331,106
1512505,304,106
1512514,328,106
1512525,327,106
1512532,304,106
1512547,333,106
1512549,306,106
1512565,314,106
1512567,327,106
1512582,294,106
1512582,324,106
1512607,310,106
1512615,304,106
1512628,333,106
1512638,300,106
1512648,323,106
1512660,324,106
1512665,306,106
1512680,339,106
1512690,315,106
1512700,322,106
1512710,338,106
1512721,309,106
1512731,339,106
1512742,327,106
1512748,320,106
1512762,346,106
1512772,311,106
1512781,345,106
1512793,351,106
1512803,316,106
1512813,346,106
1512816,314,106
1512831,315,106
1512844,331,106
1512854,301,106
1512864,331,106
1512875,321,106
1512881,309,106
1512895,332,106
1512905,304,106
1512914,465,108
1512926,658,108
1512931,656,108
1512946,322,108
1512956,226,108
1512966,308,108
1512976,324,108
1512982,290,108
1512998,323,108
1513008,312,108
1513015,305,108
1513029,335,108
1513032,304,108
1513048,324,108
1513060,335,108
1513069,316,108
1513080,356,108
1513081,335,108
1513100,344,108
1513101,356,108
1513121,318,108
1513131,344,108
1513141,333,108
1513149,328,108
1513162,365,108
1513173,348,108
1513182,383,108
1513193,404,108
1513200,394,108
1513214,436,108
1513223,412,108
1513231,404,108
1513244,397,108
1513248,337,108
1513264,343,108
1513276,316,108
1513282,297,108
1513296,324,108
1513306,296,108
1513315,317,108
1513326,324,108
1513337,297,108
1513347,328,108
1513357,300,108
1513365,300,108
1513370,317,108
1513388,283,108
1513398,313,108
1513409,304,108
1513416,293,108
1513423,323,108
1513439,294,108
1513448,312,108
1513459,318,108
1513465,294,108
1513480,330,108
1513491,307,108
1513500,311,108
1513512,332,108
1513520,299,108
1513531,327,108
1513542,317,108
1513549,304,108
1513563,333,108
1513573,302,108
1513581,320,108
1513593,327,108
1513601,304,108
1513613,340,108
1513624,317,108
1513631,318,108
1513644,336,108
1513655,303,108
1513665,331,108
1513676,323,108
1513682,312,108
1513696,343,108
1513707,314,108
1513715,333,108
1513727,342,108
1513737,315,108
1513747,347,108
1513758,323,108
1513765,325,108
1513777,346,108
1513789,316,108
1513799,345,108
1513809,338,108
1513816,326,108
1513829,354,108
1513840,323,108
1513848,336,108
1513860,342,108
1513871,316,108
1513881,347,108
1513891,327,108
1513901,328,108
1513911,348,108
1513922,317,108
1513931,344,108
1513943,337,108
1513953,322,108
1513963,351,108
1513973,331,108
1513982,360,108
1513982,372,108
1514001,342,108
1514014,373,108
1514025,343,108
1514032,336,108
1514044,353,108
1514055,320,108
1514066,343,108
1514076,334,108
1514082,318,108
1514097,346,108
1514106,314,108
1514115,451,105
1514126,658,105
1514132,658,105
1514148,405,105
1514159,235,105
1514167,321,105
1514179,344,105
1514188,306,105
1514198,336,105
1514209,332,105
1514216,319,105
1514216,350,105
1514232,323,105
1514249,342,105
1514249,359,105
1514271,339,105
1514281,380,105
1514292,367,105
1514301,368,105
1514312,383,105
1514323,346,105
1514331,364,105
1514342,354,105
1514349,340,105
1514363,376,105
1514374,357,105
1514381,391,105
1514395,414,105
1514404,398,105
1514414,435,105
1514424,414,105
1514431,402,105
1514445,400,105
1514449,341,105
1514466,347,105
1514477,328,105
1514481,304,105
1514496,335,105
1514507,308,105
1514514,320,105
1514528,324,105
1514532,285,105
1514548,306,105
1514558,278,105
1514565,271,105
1514579,297,105
1514582,270,105
1514598,303,105
1514610,308,105
1514615,296,105
1514631,330,105
1514640,303,105
1514648,315,105
1514648,323,105
1514664,291,105
1514681,317,105
1514682,293,105
1514702,287,105
1514713,310,105
1514723,277,105
1514732,301,105
1514743,294,105
1514748,275,105
1514764,305,105
1514774,274,105
1514782,286,105
1514794,297,105
1514804,269,105
1514814,299,105
1514825,284,105
1514832,283,105
1514832,311,105
1514856,280,105
1514865,307,105
1514874,307,105
1514882,289,105
1514896,321,105
1514908,294,105
1514915,304,105
1514928,314,105
1514938,286,105
1514948,319,105
1514958,302,105
1514965,298,105
1514979,322,105
1514990,292,105
1514998,317,105
1515010,316,105
1515018,297,105
1515018,327,105
1515041,303,105
1515049,310,105
1515062,320,105
1515071,304,105
1515082,346,105
1515091,332,105
1515103,328,105
1515103,351,105
1515116,313,105
1515131,336,105
1515144,332,105
1515154,312,105
1515164,341,105
1515174,312,105
1515182,323,105
1515195,328,105
1515203,332,105
1515215,569,104
1515226,659,104
1515231,628,104
1515231,247,104
1515257,256,104
1515265,328,104
1515277,320,104
1515282,299,104
1515298,333,104
1515307,308,104
1515315,319,104
1515325,333,104
1515339,308,104
1515349,347,104
1515349,336,104
1515366,333,104
1515380,359,104
1515382,333,104
1515399,362,104
1515410,362,104
1515417,344,104
1515430,376,104
1515441,352,104
1515448,370,104
1515462,396,104
1515472,381,104
1515482,426,104
1515493,422,104
1515498,425,104
1515512,456,104
1515515,416,104
1515532,414,104
1515544,380,104
1515549,326,104
1515564,333,104
1515571,288,104
1515581,286,104
1515596,298,104
1515605,269,104
1515616,303,104
1515623,288,104
1515632,281,104
1515632,312,104
1515650,283,104
1515667,308,104
1515677,308,104
1515687,286,104
1515698,321,104
1515708,296,104
1515716,304,104
1515723,320,104
1515740,290,104
1515749,321,104
1515749,309,104
1515770,302,104
1515780,331,104
1515782,298,104
1515798,319,104
1515812,319,104
1515816,296,104
1515832,328,104
1515832,300,104
1515849,308,104
1515862,325,104
1515872,291,104
1515881,321,104
1515894,307,104
1515899,299,104
1515914,328,104
1515924,298,104
1515932,321,104
1515944,329,104
1515955,313,104
1515965,350,104
1515975,323,104
1515982,323,104
1515982,336,104
1516006,304,104
1516015,331,104
1516027,313,104
1516032,305,104
1516048,338,104
1516057,311,104
1516065,335,104
1516077,340,104
1516082,318,104
1516098,350,104
1516104,322,104
1516115,325,104
1516129,341,104
1516139,311,104
1516148,340,104
1516160,327,104
1516170,321,104
1516170,351,104
1516182,321,104
1516199,336,104
1516211,337,104
1516222,321,104
1516232,358,104
1516242,325,104
1516248,330,104
1516248,347,104
1516266,312,104
1516282,341,104
1516293,328,104
1516304,317,104
1516314,345,104
1516324,311,104
1516332,328,104
1516332,320,104
1516355,349,104
1516365,601,105
1516376,659,105
1516381,569,105
1516397,232,105
1516406,266,105
1516415,328,105
1516426,304,105
1516433,294,105
1516433,327,105
1516458,299,105
1516465,320,105
1516475,325,105
1516482,301,105
1516498,336,105
1516509,317,105
1516515,325,105
1516530,348,105
1516540,319,105
1516548,345,105
1516560,331,105
1516565,318,105
1516581,349,105
1516591,320,105
1516598,342,105
1516612,357,105
1516622,346,105
1516631,394,105
1516642,386,105
1516648,403,105
1516663,430,105
1516673,396,105
1516681,405,105
1516694,366,105
1516704,325,105
1516715,334,105
1516725,285,105
1516731,297,105
1516745,304,105
1516749,281,105
1516765,315,105
1516776,292,105
1516782,294,105
1516797,309,105
1516807,273,105
1516815,300,105
1516826,291,105
1516838,281,105
1516848,313,105
1516858,285,105
1516865,302,105
1516870,309,105
1516889,283,105
1516898,315,105
1516910,290,105
1516915,293,105
1516930,316,105
1516933,289,105
1516948,318,105
1516960,311,105
1516965,296,105
1516980,326,105
1516991,296,105
1516999,313,105
1517012,318,105
1517022,291,105
1517031,324,105
1517043,304,105
1517048,306,105
1517064,331,105
1517073,304,105
1517081,333,105
1517095,328,105
1517104,315,105
1517115,345,105
1517117,316,105
1517133,332,105
1517146,338,105
1517149,312,105
1517165,346,105
1517176,325,105
1517186,328,105
1517196,351,105
1517208,322,105
1517214,351,105
1517228,342,105
1517238,330,105
1517248,360,105
1517258,330,105
1517268,346,105
1517279,355,105
1517282,329,105
1517299,365,105
1517304,346,105
1517315,346,105
1517330,369,105
1517340,339,105
1517348,366,105
1517362,354,105
1517371,340,105
1517381,370,105
1517392,337,105
1517398,354,105
1517412,375,105
1517418,349,105
1517432,376,105
1517444,353,105
1517448,344,105
1517464,359,105
1517473,325,105
1517482,350,105
1517482,340,105
1517505,322,105
1517515,352,105
1517526,321,105
1517532,331,105
1517546,448,104
1517556,657,104
1517565,659,104
1517577,432,104
1517587,217,104
1517597,326,104
1517607,299,104
1517615,318,104
1517628,317,104
1517638,305,104
1517648,337,104
1517648,308,104
1517665,320,104
1517675,328,104
1517682,305,104
1517698,342,104
1517709,324,104
1517721,322,104
1517731,347,104
1517741,317,104
1517748,341,104
1517748,337,104
1517765,324,104
1517782,362,104
1517792,343,104
1517798,369,104
1517812,392,104
1517824,379,104
1517832,425,104
1517844,412,104
1517854,409,104
1517864,420,104
1517874,360,104
1517881,354,104
1517895,320,104
1517905,277,104
1517915,297,104
1517915,257,104
1517932,265,104
1517946,277,104
1517948,251,104
1517965,285,104
1517978,268,104
1517987,268,104
1517998,293,104
1518008,263,104
1518014,289,104
1518028,287,104
1518032,270,104
1518048,304,104
1518048,274,104
1518065,289,104
1518079,304,104
1518090,278,104
1518098,311,104
1518112,293,104
1518121,291,104
1518131,319,104
1518141,285,104
1518148,312,104
1518161,309,104
1518171,288,104
1518181,321,104
1518193,292,104
1518198,305,104
1518206,321,104
1518223,294,104
1518233,330,104
1518244,318,104
1518248,315,104
1518264,344,104
1518275,314,104
1518282,342,104
1518295,342,104
1518305,324,104
1518314,359,104
1518326,331,104
1518332,341,104
1518347,355,104
1518356,328,104
1518365,360,104
1518374,343,104
1518388,340,104
1518398,367,104
1518408,335,104
1518415,364,104
1518428,376,104
1518439,355,104
1518448,382,104
1518459,351,104
1518469,352,104
1518480,361,104
1518482,329,104
1518498,359,104
1518511,341,104
1518521,335,104
1518531,360,104
1518532,320,104
1518548,363,104
1518563,539,106
1518573,659,106
1518581,658,106
1518592,282,106
1518603,264,106
1518613,343,106
1518624,311,106
1518632,340,106
1518644,327,106
1518655,321,106
1518665,349,106
1518675,317,106
1518681,341,106
1518696,342,106
1518706,324,106
1518715,360,106
1518727,336,106
1518737,347,106
1518747,368,106
1518757,342,106
1518764,374,106
1518778,360,106
1518789,353,106
1518799,382,106
1518809,362,106
1518816,397,106
1518816,411,106
1518839,405,106
1518848,448,106
1518848,424,106
1518870,427,106
1518880,421,106
1518891,354,106
1518898,353,106
1518911,312,106
1518922,285,106
1518931,302,106
1518942,267,106
1518949,288,106
1518963,290,106
1518968,270,106
1518981,301,106
1518993,274,106
1518998,279,106
1519006,297,106
1519024,268,106
1519031,300,106
1519045,289,106
1519054,282,106
1519064,314,106
1519076,283,106
1519081,304,106
1519097,307,106
1519106,281,106
1519115,312,106
1519126,288,106
1519137,296,106
1519147,315,106
1519158,286,106
1519167,316,106
1519178,303,106
1519182,290,106
1519198,314,106
1519209,281,106
1519217,298,106
1519230,303,106
1519240,279,106
1519248,313,106
1519260,291,106
1519270,299,106
1519281,322,106
1519292,292,106
1519299,325,106
1519307,312,106
1519317,299,106
1519331,329,106
1519342,296,106
1519348,313,106
1519363,315,106
1519374,290,106
1519381,324,106
1519393,300,106
1519403,305,106
1519414,326,106
1519425,298,106
1519432,330,106
1519445,324,106
1519455,314,106
1519465,342,106
1519476,310,106
1519486,327,106
1519496,332,106
1519507,306,106
1519515,340,106
1519527,318,106
1519537,323,106
1519548,343,106
1519558,312,106
1519565,340,106
1519578,330,106
1519589,318,106
1519598,349,106
1519610,316,106
1519615,337,106
1519630,344,106
1519640,318,106
1519648,361,106
1519661,351,106
1519665,345,106
1519681,363,106
1519692,329,106
1519699,350,106
1519707,336,106
1519722,320,106
1519732,349,106
1519732,317,106
1519748,334,106
1519764,340,106
1519765,306,106
1519782,420,106
1519793,631,106
1519804,659,106
1519815,539,106
1519825,210,106
1519831,318,106
1519845,325,106
1519855,296,106
1519865,330,106
1519876,304,106
1519882,325,106
1519897,336,106
1519907,310,106
1519915,344,106
1519928,325,106
1519932,331,106
1519948,361,106
1519958,331,106
1519968,360,106
1519979,350,106
1519989,328,106
1519998,357,106
1520009,325,106
1520020,343,106
1520030,360,106
1520041,343,106
1520049,391,106
1520061,385,106
1520071,400,106
1520082,435,106
1520082,410,106
1520099,434,105
1520112,409,105
1520115,367,105
1520132,373,105
1520132,322,105
1520148,320,105
1520164,321,105
1520174,290,105
1520181,320,105
1520195,300,105
1520199,299,105
1520215,319,105
1520225,285,105
1520232,308,105
1520246,303,105
1520256,285,105
1520266,318,105
1520271,289,105
1520283,301,105
1520298,314,105
1520298,290,105
1520314,325,105
1520328,309,105
1520338,303,105
1520348,328,105
1520359,295,105
1520365,318,105
1520380,315,105
1520390,296,105
1520398,329,105
1520410,300,105
1520417,310,105
1520431,322,105
1520441,293,105
1520448,326,105
1520462,308,105
1520472,308,105
1520481,337,105
1520492,307,105
1520498,334,105
1520513,331,105
1520522,312,105
1520532,344,105
1520544,316,105
1520550,325,105
1520550,336,105
1520566,303,105
1520581,336,105
1520595,319,105
1520605,315,105
1520615,344,105
1520626,313,105
1520632,341,105
1520632,342,105
1520657,323,105
1520667,359,105
1520677,334,105
1520687,341,105
1520698,353,105
1520708,322,105
1520714,347,105
1520728,330,105
1520739,321,105
1520748,346,105
1520759,316,105
1520765,341,105
1520780,341,105
1520782,319,105
1520799,350,105
1520811,323,105
1520821,333,105
1520832,348,105
1520841,318,105
1520848,345,105
1520862,332,105
1520873,324,105
1520882,353,105
1520882,320,105
1520898,350,105
1520913,363,105
1520923,336,105
1520932,364,105
1520932,336,105
1520949,334,105
1520965,346,105
1520974,314,105
1520981,342,105
1520995,326,105
1521006,316,105
1521015,342,105
1521025,304,105
1521032,339,105
1521032,515,103
1521056,658,103
1521065,657,103
1521077,278,103
1521088,251,103
1521098,330,103
1521109,288,103
1521115,313,103
1521129,304,103
1521138,299,103
1521148,328,103
1521159,293,103
1521169,311,103
1521180,320,103
1521190,300,103
1521198,337,103
1521208,314,103
1521218,319,103
1521231,333,103
1521232,302,103
1521248,332,103
1521262,325,103
1521265,323,103
1521282,359,103
1521293,338,103
1521298,370,103
1521314,390,103
1521324,378,103
1521332,422,103
1521344,404,103
1521354,408,103
1521365,411,103
1521375,351,103
1521382,348,103
1521395,308,103
1521398,271,103
1521414,287,103
1521426,247,103
1521432,264,103
1521432,271,103
1521457,250,103
1521466,288,103
1521474,267,103
1521482,272,103
1521498,295,103
1521508,264,103
1521515,294,103
1521528,290,103
1521540,277,103
1521548,308,103
1521560,282,103
1521570,300,103
1521580,310,103
1521590,285,103
1521598,319,103
1521611,300,103
1521621,302,103
1521632,324,103
1521641,292,103
1521648,319,103
1521663,313,103
1521666,298,103
1521681,332,103
1521694,304,103
1521698,321,103
1521714,332,103
1521723,308,103
1521731,340,103
1521744,320,103
1521755,322,103
1521765,346,103
1521776,318,103
1521782,346,103
1521782,340,103
1521806,327,103
1521815,357,103
1521823,327,103
1521837,341,103
1521847,351,103
1521858,326,103
1521865,357,103
1521878,338,103
1521889,336,103
1521898,363,103
1521909,328,103
1521918,356,103
1521918,366,103
1521932,354,103
1521948,377,103
1521948,347,103
1521966,352,103
1521974,358,103
1521983,325,103
1521998,357,103
1522008,337,103
1522022,333,103
1522032,357,103
1522042,319,103
1522048,340,103
1522063,460,105
1522072,658,105
1522082,659,105
1522094,382,105
1522104,232,105
1522114,329,105
1522125,305,105
1522132,330,105
1522145,318,105
1522155,316,105
1522164,343,105
1522176,309,105
1522182,332,105
1522182,334,105
1522207,318,105
1522215,353,105
1522227,328,105
1522237,345,105
1522248,362,105
1522258,334,105
1522264,366,105
1522279,353,105
1522289,348,105
1522298,376,105
1522308,352,105
1522317,386,105
1522317,401,105
1522332,393,105
1522348,438,105
1522361,420,105
1522371,429,105
1522381,429,105
1522391,370,105
1522398,366,105
1522412,321,105
1522422,291,105
1522432,305,105
1522433,269,105
1522453,290,105
1522463,290,105
1522473,270,105
1522482,303,105
1522494,278,105
1522504,283,105
1522514,300,105
1522525,267,105
1522532,299,105
1522546,287,105
1522555,280,105
1522565,311,105
1522576,283,105
1522582,304,105
1522597,308,105
1522607,282,105
1522615,313,105
1522615,289,105
1522632,296,105
1522648,318,105
1522659,290,105
1522665,320,105
1522679,306,105
1522689,294,105
1522698,323,105
1522709,289,105
1522719,303,105
1522730,304,105
1522740,278,105
1522748,314,105
1522761,294,105
1522768,301,105
1522780,325,105
1522783,297,105
1522798,328,105
1522812,321,105
1522822,306,105
1522832,334,105
1522843,302,105
1522848,321,105
1522864,327,105
1522874,301,105
1522882,335,105
1522894,314,105
1522898,317,105
1522914,340,105
1522926,310,105
1522932,338,105
1522945,331,105
1522949,315,105
1522966,343,105
1522976,313,105
1522981,328,105
1522996,337,105
1523007,311,105
1523016,342,105
1523028,325,105
1523038,328,105
1523048,350,105
1523059,317,105
1523068,355,105
1523068,352,105
1523082,328,105
1523097,358,105
1523110,322,105
1523120,334,105
1523129,343,105
1523141,314,105
1523148,344,105
1523161,322,105
1523169,321,105
1523182,338,105
1523192,309,105
1523198,474,106
1523211,659,106
1523216,658,106
1523231,361,106
1523243,230,106
1523254,321,106
1523264,326,106
1523272,293,106
1523281,327,106
1523295,313,106
1523298,313,106
1523314,338,106
1523326,305,106
1523332,332,106
1523346,333,106
1523348,320,106
1523365,357,106
1523376,332,106
1523386,348,106
1523397,354,106
1523399,324,106
1523416,355,106
1523420,336,106
1523439,337,106
1523448,368,106
1523459,347,106
1523465,385,106
1523479,399,106
1523490,394,106
1523498,435,106
1523510,410,106
1523521,410,106
1523531,400,106
1523541,342,106
1523548,349,106
1523562,317,106
1523572,300,106
1523582,323,106
1523592,292,106
1523598,314,106
1523613,314,106
1523616,292,106
1523632,320,106
1523644,293,106
1523649,300,106
1523664,316,106
1523675,288,106
1523681,318,106
1523695,306,106
1523706,295,106
1523715,325,106
1523726,296,106
1523731,319,106
1523746,324,106
1523757,300,106
1523767,332,106
1523767,307,106
1523788,314,106
1523798,331,106
1523808,302,106
1523817,332,106
1523828,320,106
1523839,309,106
1523848,338,106
1523859,305,106
1523865,322,106
1523879,327,106
1523882,305,106
1523899,338,106
1523911,316,106
1523915,325,106
1523930,345,106
1523941,315,106
1523948,342,106
1523962,333,106
1523972,321,106
1523981,349,106
1523993,317,106
1523998,331,106
1524013,336,106
1524016,309,106
1524032,341,106
1524032,320,106
1524049,321,106
1524065,339,106
1524075,310,106
1524082,340,106
1524096,336,106
1524106,323,106
1524115,356,106
1524126,330,106
1524137,346,106
1524147,352,106
1524158,320,106
1524165,349,106
1524178,326,106
1524188,324,106
1524198,342,106
1524208,307,106
1524216,333,106
1524216,326,106
1524240,309,106
1524249,337,106
1524260,305,106
1524270,328,106
1524280,343,106
1524291,312,106
1524298,340,106
1524311,317,106
1524321,306,106
1524332,326,106
1524342,294,106
1524348,318,106
1524363,313,106
1524365,293,106
1524381,327,106
1524394,287,106
1524404,340,106
1524414,569,102
1524423,658,102
1524433,598,102
1524444,194,102
1524448,247,102
1524465,310,102
1524475,271,102
1524482,295,102
1524496,293,102
1524506,276,102
1524515,309,102
1524527,283,102
1524537,296,102
1524547,316,102
1524558,297,102
1524565,331,102
1524577,321,102
1524588,317,102
1524598,345,102
1524609,316,102
1524615,340,102
1524629,345,102
1524640,333,102
1524648,374,102
1524660,361,102
1524665,386,102
1524665,414,102
1524691,400,102
1524699,442,102
1524711,430,102
1524722,420,102
1524732,424,102
1524743,360,102
1524748,349,102
1524763,325,102
1524773,283,102
1524782,303,102
1524793,275,102
1524804,283,102
1524814,304,102
1524824,279,102
1524833,312,102
1524845,301,102
1524855,295,102
1524865,327,102
1524871,298,102
1524883,318,102
1524896,324,102
1524899,303,102
1524916,337,102
1524927,315,102
1524932,320,102
1524947,340,102
1524948,313,102
1524964,343,102
1524979,334,102
1524989,323,102
1524999,353,102
1525009,320,102
1525018,333,102
1525018,336,102
1525040,309,102
1525049,338,102
1525060,313,102
1525066,315,102
1525082,339,102
1525091,310,102
1525099,340,102
1525112,332,102
1525122,321,102
1525132,352,102
1525142,321,102
1525148,335,102
1525163,341,102
1525173,313,102
1525183,344,102
1525194,322,102
1525199,323,102
1525215,345,102
1525221,316,102
1525232,340,102
1525245,337,102
1525248,320,102
1525265,359,102
1525276,342,102
1525282,357,102
1525297,362,102
1525299,333,102
1525315,355,102
1525327,331,102
1525332,324,102
1525348,347,102
1525349,314,102
1525365,336,102
1525379,332,102
1525389,309,102
1525398,339,102
1525409,446,106
1525415,658,106
1525430,659,106
1525440,351,106
1525448,247,106
1525461,312,106
1525471,312,106
1525481,330,106
1525482,299,106
1525498,324,106
1525512,324,106
1525522,303,106
1525531,332,106
1525542,307,106
1525548,321,106
1525564,342,106
1525571,316,106
1525582,353,106
1525595,340,106
1525605,336,106
1525615,363,106
1525624,333,106
1525632,358,106
1525646,362,106
1525656,347,106
1525665,390,106
1525676,378,106
1525686,401,106
1525697,430,106
1525708,407,106
1525715,436,106
1525728,408,106
1525738,370,106
1525749,365,106
1525758,306,106
1525767,306,106
1525779,298,106
1525789,272,106
1525798,303,106
1525810,280,106
1525816,285,106
1525816,302,106
1525841,270,106
1525848,298,106
1525861,283,106
1525871,271,106
1525882,302,106
1525892,275,106
1525899,297,106
1525913,301,106
1525922,277,106
1525931,308,106
1525943,284,106
1525949,288,106
1525949,306,106
1525974,276,106
1525981,305,106
1525994,299,106
1525999,289,106
1526015,318,106
1526025,290,106
1526031,307,106
1526046,313,106
1526049,286,106
1526064,317,106
1526069,294,106
1526083,295,106
1526083,317,106
1526098,288,106
1526114,315,106
1526128,311,106
1526133,297,106
1526148,331,106
1526159,304,106
1526166,319,106
1526179,328,106
1526190,300,106
1526198,332,106
1526210,309,106
1526221,309,106
1526231,333,106
1526241,301,106
1526249,327,106
1526262,324,106
1526271,308,106
1526281,341,106
1526292,316,106
1526298,330,106
1526313,342,106
1526316,317,106
1526333,349,106
1526344,331,106
1526351,326,106
1526365,349,106
1526365,315,106
1526382,338,106
1526395,336,106
1526398,318,106
1526415,352,106
1526425,325,106
1526432,336,106
1526446,350,106
1526449,319,106
1526466,347,106
1526476,328,106
1526488,328,106
1526498,364,106
1526507,334,106
1526515,351,106
1526528,349,106
1526532,322,106
1526548,350,106
1526548,320,106
1526566,329,106
1526579,344,106
1526590,313,106
1526599,346,106
1526612,327,106
1526621,316,106
1526631,464,107
1526641,657,107
1526648,659,107
1526662,427,107
1526672,220,107
1526681,338,107
1526693,315,107
1526698,311,107
1526713,332,107
1526723,305,107
1526731,340,107
1526744,330,107
1526749,319,107
1526765,349,107
1526775,321,107
1526781,345,107
1526781,353,107
1526806,332,107
1526815,366,107
1526826,337,107
1526831,337,107
1526847,354,107
1526857,325,107
1526865,356,107
1526877,356,107
1526888,355,107
1526898,401,107
1526909,391,107
1526917,423,107
1526929,440,107
1526938,417,107
1526949,441,107
1526955,399,107
1526970,374,107
1526980,371,107
1526982,320,107
1526998,335,107
1527012,323,107
1527021,307,107
1527031,337,107
1527042,305,107
1527048,316,107
1527062,320,107
1527070,285,107
1527082,313,107
1527093,289,107
1527099,290,107
1527113,316,107
1527124,288,107
1527131,317,107
1527145,314,107
1527149,299,107
1527165,332,107
1527175,303,107
1527181,316,107
1527196,325,107
1527206,294,107
1527215,325,107
1527226,308,107
1527232,304,107
1527248,329,107
1527257,298,107
1527264,321,107
1527278,319,107
1527289,300,107
1527298,334,107
1527309,305,107
1527315,312,107
1527329,323,107
1527339,287,107
1527348,315,107
1527360,300,107
1527370,291,107
1527381,316,107
1527391,285,107
1527398,306,107
1527412,305,107
1527419,282,107
1527431,316,107
1527431,290,107
1527449,298,107
1527463,316,107
1527473,285,107
1527481,318,107
1527494,305,107
1527499,295,107
1527514,322,107
1527520,290,107
1527532,310,107
1527544,314,107
1527555,291,107
1527564,324,107
1527576,301,107
1527581,307,107
1527596,325,107
1527599,293,107
1527616,320,107
1527623,311,107
1527633,298,107
1527647,325,107
1527649,293,107
1527665,310,107
1527679,320,107
1527688,308,107
1527698,348,107
1527709,324,107
1527714,326,107
1527729,336,107
1527740,302,107
1527749,328,107
1527760,320,107
1527770,305,107
1527781,335,107
1527790,305,107
1527799,317,107
1527811,324,107
1527822,429,104
1527831,658,104
1527831,659,104
1527847,349,104
1527862,238,104
1527873,289,104
1527882,325,104
1527882,317,104
1527898,303,104
1527914,336,104
1527925,310,104
1527932,327,104
1527945,336,104
1527955,313,104
1527964,350,104
1527976,336,104
1527982,338,104
1527982,366,104
1527998,340,104
1528015,372,104
1528027,369,104
1528038,354,104
1528047,387,104
1528059,367,104
1528066,391,104
1528078,415,104
1528082,402,104
1528099,448,104
1528100,441,104
1528115,443,104
1528130,466,104
1528137,424,104
1528149,421,104
1528159,385,104
1528166,336,104
1528171,344,104
1528192,300,104
1528199,302,104
1528212,315,104
1528222,289,104
1528232,321,104
1528243,307,104
1528249,300,104
1528249,325,104
1528274,292,104
1528282,315,104
1528287,316,104
1528304,295,104
1528314,329,104
1528325,303,104
1528332,314,104
1528346,329,104
1528356,299,104
1528366,330,104
1528376,318,104
1528382,309,104
1528397,336,104
1528407,305,104
1528415,325,104
1528428,327,104
1528438,303,104
1528448,333,104
1528458,309,104
1528469,313,104
1528479,328,104
1528482,298,104
1528498,329,104
1528510,321,104
1528520,308,104
1528530,339,104
1528541,309,104
1528548,330,104
1528562,337,104
1528571,315,104
1528582,348,104
1528591,327,104
1528599,329,104
1528612,346,104
1528617,313,104
1528631,340,104
1528644,331,104
1528649,316,104
1528649,345,104
1528666,316,104
1528682,333,104
1528694,341,104
1528699,316,104
1528715,350,104
1528725,330,104
1528731,329,104
1528746,349,104
1528756,317,104
1528766,343,104
1528769,334,104
1528782,318,104
1528782,356,104
1528799,334,104
1528815,347,104
1528827,347,104
1528838,316,104
1528848,339,104
1528859,318,104
1528865,312,104
1528879,334,104
1528890,301,104
1528898,326,104
1528910,325,104
1528920,294,104
1528930,367,104
1528940,546,104
1528948,659,104
1528961,624,104
1528966,206,104
1528981,284,104
1528993,308,104
1528999,291,104
1528999,315,104
1529014,287,104
1529032,311,104
1529043,310,104
1529054,289,104
1529064,322,104
1529075,302,104
1529081,317,104
1529095,340,104
1529105,316,104
1529115,351,104
1529118,336,104
1529131,326,104
1529146,348,104
1529148,314,104
1529165,335,104
1529177,342,104
1529187,328,104
1529198,371,104
1529208,361,104
1529215,384,104
1529228,414,104
1529232,391,104
1529248,421,104
1529259,393,104
1529265,358,104
1529280,360,104
1529290,305,104
1529298,309,104
1529311,304,104
1529320,279,104
1529331,310,104
1529341,286,104
1529348,289,104
1529362,306,104
1529372,273,104
1529382,300,104
1529393,288,104
1529399,278,104
1529412,308,104
1529423,280,104
1529432,300,104
1529444,308,104
1529454,286,104
1529465,320,104
1529475,299,104
1529482,300,104
1529495,320,104
1529506,289,104
1529515,316,104
1529527,309,104
1529531,295,104
1529547,325,104
1529557,295,104
1529565,310,104
1529565,319,104
1529588,290,104
1529598,321,104
1529608,301,104
1529615,301,104
1529629,326,104
1529639,297,104
1529648,327,104
1529660,327,104
1529666,313,104
1529670,346,104
1529682,318,104
1529698,331,104
1529711,340,104
1529721,309,104
1529731,337,104
1529742,320,104
1529749,314,104
1529749,341,104
1529773,311,104
1529782,335,104
1529792,337,104
1529799,324,104
1529813,360,104
1529824,336,104
1529832,351,104
1529844,368,104
1529854,336,104
1529865,363,104
1529875,345,104
1529882,337,104
1529896,360,104
1529906,328,104
1529916,348,104
1529926,350,104
1529932,329,104
1529946,363,104
1529958,338,104
1529965,349,104
1529977,365,104
1529987,334,104
1529999,372,104
1530009,363,104
1530016,355,104
1530016,378,104
1530039,344,104
1530048,353,104
1530060,349,104
1530065,325,104
1530080,354,104
1530083,329,104
1530098,329,104
1530111,346,104
1530121,306,104
1530131,366,104
1530142,549,104
1530149,659,104
1530149,655,104
1530173,243,104
1530182,261,104
1530193,318,104
1530203,280,104
1530214,310,104
1530224,291,104
1530231,298,104
1530244,318,104
1530255,284,104
1530264,313,104
1530275,308,104
1530281,298,104
1530296,336,104
1530306,309,104
1530317,325,104
1530327,332,104
1530337,305,104
1530347,338,104
1530358,321,104
1530366,329,104
1530366,359,104
1530388,342,104
1530398,381,104
1530409,391,104
1530417,393,104
1530430,436,104
1530439,415,104
1530449,426,104
1530460,424,104
1530471,369,104
1530481,370,104
1530491,322,104
1530499,296,104
1530499,304,104
1530522,263,104
1530532,285,104
1530542,281,104
1530548,264,104
1530563,300,104
1530573,272,104
1530581,287,104
1530594,304,104
1530599,274,104
1530599,307,104
1530625,289,104
1530632,284,104
1530645,309,104
1530655,278,104
1530665,302,104
1530675,300,104
1530682,281,104
1530682,316,104
1530699,291,104
1530715,301,104
1530727,317,104
1530737,287,104
1530748,315,104
1530757,301,104
1530765,294,104
1530770,323,104
1530781,295,104
1530798,318,104
1530809,322,104
1530817,303,104
1530829,337,104
1530832,315,104
1530849,321,104
1530849,340,104
1530866,312,104
1530881,341,104
1530882,330,104
1530899,319,104
1530899,349,104
1530918,319,104
1530932,337,104
1530932,342,104
1530953,318,104
1530964,351,104
1530973,326,104
1530982,332,104
1530994,354,104
1531004,323,104
1531014,350,104
1531025,338,104
1531032,334,104
1531032,375,104
1531056,342,104
1531065,357,104
1531076,360,104
1531082,327,104
1531096,357,104
1531107,333,104
1531115,334,104
1531127,353,104
1531133,320,104
1531148,346,104
1531158,326,104
1531167,346,104
1531179,586,103
1531189,659,103
1531198,642,103
1531209,255,103
1531218,260,103
1531230,341,103
1531241,314,103
1531249,309,103
1531261,334,103
1531271,303,103
1531282,328,103
1531292,320,103
1531298,304,103
1531312,338,103
1531323,316,103
1531332,336,103
1531332,352,103
1531349,328,103
1531349,363,103
1531373,347,103
1531382,345,103
1531395,370,103
1531405,340,103
1531415,371,103
1531425,378,103
1531432,373,103
1531446,418,103
1531448,404,103
1531465,424,103
1531476,446,103
1531482,413,104
1531482,427,104
1531507,378,104
1531515,341,104
1531524,342,104
1531531,290,104
1531548,300,104
1531559,298,104
1531565,274,104
1531579,307,104
1531589,282,104
1531598,288,104
1531610,302,104
1531620,275,104
1531631,306,104
1531640,293,104
1531648,283,104
1531648,308,104
1531672,272,104
1531682,290,104
1531682,293,104
1531697,272,104
1531713,304,104
1531723,281,104
1531732,288,104
1531732,308,104
1531749,282,104
1531764,316,104
1531765,312,104
1531781,301,104
1531794,328,104
1531805,294,104
1531815,306,104
1531821,307,104
1531831,277,104
1531831,306,104
1531857,283,104
1531865,286,104
1531876,308,104
1531887,280,104
1531898,314,104
1531908,310,104
1531918,300,104
1531928,331,104
1531938,301,104
1531948,317,104
1531959,322,104
1531967,298,104
1531967,329,104
1531982,310,104
1531998,310,104
1532010,330,104
1532021,296,104
1532030,322,104
1532041,314,104
1532048,299,104
1532061,331,104
1532071,302,104
1532082,318,104
1532092,333,104
1532103,308,104
1532113,343,104
1532123,325,104
1532131,322,104
1532143,347,104
1532154,314,104
1532164,335,104
1532174,331,104
1532182,324,104
1532195,359,104
1532199,327,104
1532216,337,104
1532225,344,104
1532231,311,104
1532246,342,104
1532256,324,104
1532265,318,104
1532277,344,104
1532288,314,104
1532298,336,104
1532308,328,104
1532318,393,104
1532328,656,105
1532339,659,105
1532349,498,105
1532349,238,105
1532365,289,105
1532380,333,105
1532390,308,105
1532398,300,105
1532410,330,105
1532421,301,105
1532431,323,105
1532441,327,105
1532448,306,105
1532463,346,105
1532472,327,105
1532483,339,105
1532483,361,105
1532501,334,105
1532501,357,105
1532518,340,105
1532533,329,105
1532544,357,105
1532549,329,105
1532565,352,105
1532575,366,105
1532582,355,105
1532595,405,105
1532598,397,105
1532615,411,105
1532626,435,105
1532633,399,105
1532633,411,105
1532649,374,105
1532665,336,105
1532674,344,105
1532688,300,105
1532698,310,105
1532698,317,105
1532718,292,105
1532729,327,105
1532740,307,105
1532749,306,105
1532749,323,105
1532766,286,105
1532780,311,105
1532791,304,105
1532798,289,105
1532811,323,105
1532822,298,105
1532831,314,105
1532841,327,105
1532852,301,105
1532862,335,105
1532873,313,105
1532882,308,105
1532893,332,105
1532899,300,105
1532914,327,105
1532924,323,105
1532932,307,105
1532944,339,105
1532949,312,105
1532965,322,105
1532975,330,105
1532983,301,105
1532983,331,105
1533006,317,105
1533015,315,105
1533027,344,105
1533037,316,105
1533047,341,105
1533057,337,105
1533065,314,105
1533078,342,105
1533088,314,105
1533099,320,105
1533109,336,105
1533119,306,105
1533130,339,105
1533139,328,105
1533149,321,105
1533149,353,105
1533165,320,105
1533181,339,105
1533191,341,105
1533198,321,105
1533211,353,105
1533222,328,105
1533232,334,105
1533232,345,105
1533248,313,105
1533263,339,105
1533273,325,105
1533281,313,105
1533293,340,105
1533304,311,105
1533313,329,105
1533320,333,105
1533331,307,105
1533346,340,105
1533351,316,105
1533364,320,105
1533375,337,105
1533383,306,105
1533396,346,105
1533399,343,105
1533415,329,105
1533427,351,105
1533431,314,105
1533447,325,105
1533448,327,105
1533465,299,105
1533479,332,105
1533482,308,105
1533498,310,105
1533500,328,105
1533519,285,105
1533530,369,105
1533532,594,105
1533548,659,105
1533561,577,105
1533566,189,105
1533574,274,105
1533583,317,105
1533599,282,105
1533612,312,105
1533619,298,105
1533631,298,105
1533643,325,105
1533649,295,105
1533649,323,105
1533674,323,105
1533682,312,105
1533682,347,105
1533704,318,105
1533714,334,105
1533724,348,105
1533732,321,105
1533732,355,105
1533756,340,105
1533765,342,105
1533777,376,105
1533782,355,105
1533782,395,105
1533798,409,105
1533816,404,105
1533827,447,105
1533832,425,105
1533847,433,105
1533849,431,105
1533865,373,105
1533875,374,105
1533889,334,105
1533899,308,105
1533909,323,105
1533919,287,105
1533923,311,105
1533941,314,105
1533949,292,105
1533949,326,105
1533966,300,105
1533981,307,105
1533992,324,105
1533999,291,105
1534012,322,105
1534022,309,105
1534032,302,105
1534032,334,105
1534048,305,105
1534063,326,105
1534074,325,105
1534082,302,105
1534082,334,105
1534099,312,105
1534115,323,105
1534125,349,105
1534132,320,105
1534132,342,105
1534148,324,105
1534166,304,105
1534177,326,105
1534182,287,105
1534197,294,105
1534198,289,105
1534215,259,105
1534228,284,105
1534232,259,105
1534249,269,105
1534258,300,105
1534268,284,105
1534278,325,105
1534289,333,105
1534299,324,105
1534310,359,105
1534320,335,105
1534331,351,105
1534340,353,105
1534348,319,105
1534361,347,105
1534371,323,105
1534381,323,105
1534392,342,105
1534398,310,105
1534412,336,105
1534422,335,105
1534432,320,105
1534444,352,105
1534448,322,105
1534463,335,105
1534474,352,105
1534482,331,105
1534495,358,105
1534498,336,105
1534514,328,105
1534526,349,105
1534536,320,105
1534546,344,105
1534556,337,105
1534565,314,105
1534577,338,105
1534583,300,105
1534583,297,105
1534608,402,106
1534615,623,106
1534627,658,106
1534634,429,106
1534648,212,106
1534659,334,106
1534665,323,106
1534679,340,106
1534689,336,106
1534698,313,106
1534710,335,106
1534720,300,106
1534720,299,106
1534742,311,106
1534749,287,106
1534749,325,106
1534771,323,106
1534782,326,106
1534782,364,106
1534797,341,106
1534813,366,106
1534820,370,106
1534831,355,106
1534843,388,106
1534854,366,106
1534864,376,106
1534874,401,106
1534882,380,106
1534895,419,106
1534906,411,106
1534915,400,106
1534926,420,105
1534932,366,105
1534946,357,105
1534957,339,105
1534965,301,105
1534977,321,105
1534987,288,105
1534998,287,105
1535007,306,105
1535016,275,105
1535028,303,105
1535039,288,105
1535048,274,105
1535060,301,105
1535065,276,105
1535080,298,105
1535089,311,105
1535098,289,105
1535111,320,105
1535121,298,105
1535131,297,105
1535141,319,105
1535149,282,105
1535162,308,105
1535172,305,105
1535182,295,105
1535193,329,105
1535198,304,105
1535213,320,105
1535223,329,105
1535232,300,105
1535243,326,105
1535254,302,105
1535264,295,105
1535275,321,105
1535282,288,105
1535296,314,105
1535306,316,105
1535315,304,105
1535326,342,105
1535332,316,105
1535347,327,105
1535357,336,105
1535365,304,105
1535377,332,105
1535388,312,105
1535398,307,105
1535409,333,105
1535415,303,105
1535426,331,105
1535432,329,105
1535449,311,105
1535459,345,105
1535470,321,105
1535479,329,105
1535490,344,105
1535498,314,105
1535511,346,105
1535521,331,105
1535531,326,105
1535531,353,105
1535551,321,105
1535562,344,105
1535572,343,105
1535582,316,105
1535593,352,105
1535603,336,105
1535614,343,105
1535624,355,105
1535632,322,105
1535644,346,105
1535655,331,105
1535665,322,105
1535675,352,105
1535681,320,105
1535695,339,105
1535706,343,105
1535715,315,105
1535726,348,105
1535732,453,107
1535732,658,107
1535757,659,107
1535765,360,107
1535777,244,107
1535789,317,107
1535799,303,107
1535808,324,107
1535814,295,107
1535829,316,107
1535840,325,107
1535848,303,107
1535860,337,107
1535871,314,107
1535881,320,107
1535891,344,107
1535898,318,107
1535912,348,107
1535922,342,107
1535931,323,107
1535943,352,107
1535948,325,107
1535948,347,107
1535965,362,107
1535982,346,107
1535994,386,107
1535999,376,107
1536014,387,107
1536023,415,107
1536032,392,107
1536045,419,107
1536055,405,107
1536064,371,107
1536076,374,107
1536082,323,107
1536097,319,107
1536106,319,107
1536115,286,107
1536127,318,107
1536131,301,107
1536147,298,107
1536149,321,107
1536166,286,107
1536179,309,107
1536189,304,107
1536198,284,107
1536209,318,107
1536215,294,107
1536230,310,107
1536240,328,107
1536249,306,107
1536260,341,107
1536269,323,107
1536269,310,107
1536281,329,107
1536299,291,107
1536312,312,107
1536322,309,107
1536332,291,107
1536342,325,107
1536348,306,107
1536363,321,107
1536370,341,107
1536382,311,107
1536382,339,107
1536399,322,107
1536415,312,107
1536424,340,107
1536432,308,107
1536432,331,107
1536456,334,107
1536465,310,107
1536476,341,107
1536483,317,107
1536497,318,107
1536507,336,107
1536515,307,107
1536527,337,107
1536537,328,107
1536548,321,107
1536558,351,107
1536565,321,107
1536579,337,107
1536589,338,107
1536599,312,107
1536610,343,107
1536615,320,107
1536630,324,107
1536639,343,107
1536649,313,107
1536649,343,107
1536665,330,107
1536681,321,107
1536684,359,107
1536698,333,107
1536712,342,107
1536721,346,107
1536731,314,107
1536743,342,107
1536748,316,107
1536763,317,107
1536773,335,107
1536781,301,107
1536794,325,107
1536799,310,107
1536815,289,107
1536825,432,106
1536832,657,106
1536832,658,106
1536856,367,106
1536865,187,106
1536876,306,106
1536882,291,106
1536896,283,106
1536907,301,106
1536915,271,106
1536928,297,106
1536938,295,106
1536948,279,106
1536959,311,106
1536965,287,106
1536979,306,106
1536989,324,106
1536998,299,106
1537009,330,106
1537016,316,106
1537023,312,106
1537041,340,106
1537049,314,106
1537062,345,106
1537071,356,106
1537082,354,106
1537092,405,106
1537098,397,106
1537113,418,106
1537123,442,106
1537133,411,106
1537144,430,106
1537149,387,106
1537165,344,106
1537174,340,106
1537182,286,106
1537195,297,106
1537206,296,106
1537215,277,106
1537226,312,106
1537232,291,106
1537245,301,106
1537256,320,106
1537265,291,106
1537277,322,106
1537287,311,106
1537297,304,106
1537307,331,106
1537317,302,106
1537328,322,106
1537338,327,106
1537348,306,106
1537359,338,106
1537365,314,106
1537365,322,106
1537381,344,106
1537400,314,106
1537410,344,106
1537416,335,106
1537431,324,106
1537441,349,106
1537448,316,106
1537461,331,106
1537469,335,106
1537482,312,106
1537492,342,106
1537499,319,106
1537513,325,106
1537523,348,106
1537532,320,106
1537543,352,106
1537548,346,106
1537564,336,106
1537569,365,106
1537582,332,106
1537595,342,106
1537605,346,106
1537615,318,106
1537625,349,106
1537636,326,106
1537646,324,106
1537657,344,106
1537665,308,106
1537677,333,106
1537682,328,106
1537698,313,106
1537708,343,106
1537716,325,106
1537728,348,106
1537732,358,106
1537749,327,106
1537749,351,106
1537765,323,106
1537779,314,106
1537790,333,106
1537799,299,106
1537810,323,106
1537815,317,106
1537831,300,106
1537841,328,106
1537848,322,106
1537862,512,108
1537868,659,108
1537882,651,108
1537882,274,108
1537899,251,108
1537899,300,108
1537924,315,108
1537932,282,108
1537944,307,108
1537955,308,108
1537964,289,108
1537973,325,108
1537982,302,108
1537995,314,108
1537999,333,108
1538014,308,108
1538026,345,108
1538032,336,108
1538032,331,108
1538057,352,108
1538065,321,108
1538074,341,108
1538088,345,108
1538098,330,108
1538099,376,108
1538115,369,108
1538129,396,108
1538139,429,108
1538149,409,108
1538159,441,108
1538165,425,108
1538171,398,108
1538191,401,108
1538199,342,108
1538199,334,108
1538221,321,108
1538232,290,108
1538242,324,108
1538248,306,108
1538262,310,108
1538266,326,108
1538281,288,108
1538293,311,108
1538298,296,108
1538313,282,108
1538324,312,108
1538332,283,108
1538344,301,108
1538354,310,108
1538364,285,108
1538375,317,108
1538382,291,108
1538395,287,108
1538406,304,108
1538415,268,108
1538426,292,108
1538432,283,108
1538432,271,108
1538456,302,108
1538465,273,108
1538478,288,108
1538488,300,108
1538498,276,108
1538508,307,108
1538515,287,108
1538528,286,108
1538539,307,108
1538550,281,108
1538560,307,108
1538570,302,108
1538580,285,108
1538591,318,108
1538600,292,108
1538600,305,108
1538622,314,108
1538631,288,108
1538642,318,108
1538648,301,108
1538662,299,108
1538673,323,108
1538682,292,108
1538693,319,108
1538704,317,108
1538714,302,108
1538724,336,108
1538732,310,108
1538732,324,108
1538749,337,108
1538765,312,108
1538776,343,108
1538781,328,108
1538795,323,108
1538806,348,108
1538815,316,108
1538827,336,108
1538837,337,108
1538847,316,108
1538849,351,108
1538865,328,108
1538879,338,108
1538888,356,108
1538898,336,108
1538899,372,108
1538915,356,108
1538929,345,108
1538940,366,108
1538948,330,108
1538960,348,108
1538965,351,108
1538980,330,108
1538991,360,108
1538999,336,108
1538999,340,108
1539022,350,108
1539031,413,109
1539042,658,109
1539049,659,109
1539049,503,109
1539074,254,109
1539082,306,109
1539082,342,109
1539104,336,109
1539114,311,109
1539125,342,109
1539132,318,109
1539145,319,109
1539149,340,109
1539166,314,109
1539176,346,109
1539182,342,109
1539197,334,109
1539199,368,109
1539214,345,109
1539228,364,109
1539238,373,109
1539248,347,109
1539258,381,109
1539265,362,109
1539278,370,109
1539289,403,109
1539298,388,109
1539310,429,109
1539317,433,109
1539330,427,109
1539340,461,109
1539348,427,109
1539361,421,109
1539371,401,109
1539381,345,109
1539391,351,109
1539399,312,109
1539412,300,109
1539422,317,109
1539433,284,109
1539443,309,109
1539453,304,109
1539464,288,109
1539473,318,109
1539481,291,109
1539493,308,109
1539504,319,109
1539514,289,109
1539525,321,109
1539531,303,109
1539545,300,109
1539549,322,109
1539567,290,109
1539576,312,109
1539586,310,109
1539597,291,109
1539607,323,109
1539616,297,109
1539625,308,109
1539638,320,109
1539647,290,109
1539658,317,109
1539666,298,109
1539678,289,109
1539683,312,109
1539699,280,109
1539709,301,109
1539720,302,109
1539730,284,109
1539741,320,109
1539749,297,109
1539761,306,109
1539766,323,109
1539782,295,109
1539792,325,109
1539799,312,109
1539799,302,109
1539815,330,109
1539832,298,109
1539844,315,109
1539848,318,109
1539864,296,109
1539874,326,109
1539882,304,109
1539895,311,109
1539905,330,109
1539915,300,109
1539925,329,109
1539932,319,109
1539946,308,109
1539956,338,109
1539965,307,109
1539976,325,109
1539987,331,109
1539998,308,109
1540007,343,109
1540016,322,109
1540028,324,109
1540038,343,109
1540048,311,109
1540058,343,109
1540065,344,109
1540079,335,109
1540090,362,109
1540099,331,109
1540099,343,109
1540115,344,109
1540130,313,109
1540141,344,109
1540148,322,109
1540161,319,109
1540172,341,109
1540181,306,109
1540193,323,109
1540199,401,107
1540199,623,107
1540223,659,107
1540233,481,107
1540233,223,107
1540249,315,107
1540249,302,107
1540275,326,107
1540282,308,107
1540295,309,107
1540298,333,107
1540315,300,107
1540326,325,107
1540331,319,107
1540346,302,107
1540349,338,107
1540366,315,107
1540375,331,107
1540383,346,107
1540383,315,107
1540408,345,107
1540415,330,107
1540428,326,107
1540439,355,107
1540448,331,107
1540459,364,107
1540465,374,107
1540480,370,107
1540490,416,107
1540499,398,107
1540511,414,107
1540520,424,107
1540531,381,107
1540541,388,107
1540549,353,107
1540549,328,107
1540567,343,107
1540581,308,107
1540593,326,107
1540599,326,107
1540613,303,107
1540620,331,107
1540632,300,107
1540645,301,107
1540649,315,107
1540665,286,107
1540674,320,107
1540682,311,107
1540695,304,107
1540699,334,107
1540716,307,107
1540726,327,107
1540732,327,107
1540732,301,107
1540757,327,107
1540766,296,107
1540775,296,107
1540788,307,107
1540798,274,107
1540799,303,107
1540816,295,107
1540829,281,107
1540832,309,107
1540848,280,107
1540848,299,107
1540865,306,107
1540879,281,107
1540882,314,107
1540898,292,107
1540910,288,107
1540916,306,107
1540931,276,107
1540941,304,107
1540949,299,107
1540962,285,107
1540972,315,107
1540982,286,107
1540993,298,107
1541003,309,107
1541013,285,107
1541016,317,107
1541031,299,107
1541044,300,107
1541055,324,107
1541065,294,107
1541076,315,107
1541082,314,107
1541096,302,107
1541099,331,107
1541115,305,107
1541125,319,107
1541132,332,107
1541146,306,107
1541148,342,107
1541164,335,107
1541178,339,107
1541188,361,107
1541198,328,107
1541209,345,107
1541215,340,107
1541228,320,107
1541239,354,107
1541248,326,107
1541260,338,107
1541270,351,107
1541280,314,107
1541291,360,107
1541299,518,107
1541312,659,107
1541321,658,107
1541332,299,107
1541342,272,107
1541349,342,107
1541362,322,107
1541366,349,107
1541382,323,107
1541394,331,107
1541399,344,107
1541413,313,107
1541424,342,107
1541431,334,107
1541445,332,107
1541449,364,107
1541465,337,107
1541475,363,107
1541482,373,107
1541496,356,107
1541506,388,107
1541516,362,107
1541526,365,107
1541532,387,107
1541547,366,107
1541558,410,107
1541564,413,107
1541578,412,107
1541582,450,107
1541598,428,107
1541609,446,107
1541615,436,107
1541629,383,107
1541639,384,107
1541648,333,107
1541660,314,107
1541665,319,107
1541671,281,107
1541692,304,107
1541698,296,107
1541711,285,107
1541718,316,107
1541731,287,107
1541733,304,107
1541750,313,107
1541763,289,107
1541766,322,107
1541782,302,107
1541793,303,107
1541799,327,107
1541814,297,107
1541824,322,107
1541832,317,107
1541845,303,107
1541856,335,107
1541866,307,107
1541876,320,107
1541882,328,107
1541896,301,107
1541907,331,107
1541916,313,107
1541927,306,107
1541933,325,107
1541933,291,107
1541958,311,107
1541965,307,107
1541974,288,107
1541981,322,107
1541998,300,107
1542009,316,107
1542015,334,107
1542029,308,107
1542040,340,107
1542049,320,107
1542049,312,107
1542071,336,107
1542081,304,107
1542091,323,107
1542099,319,107
1542099,297,107
1542115,328,107
1542131,302,107
1542143,310,107
1542149,323,107
1542149,296,107
1542173,327,107
1542182,315,107
1542182,307,107
1542204,334,107
1542215,303,107
1542224,326,107
1542232,327,107
1542232,304,107
1542256,336,107
1542265,317,107
1542275,334,107
1542283,357,107
1542283,324,107
1542308,348,107
1542315,329,107
1542327,311,107
1542338,334,107
1542348,301,107
1542358,319,107
1542365,321,107
1542371,299,107
1542389,331,107
1542398,296,107
1542410,380,107
1542415,633,107
1542429,658,107
1542441,485,107
1542448,211,107
1542461,282,107
1542471,329,107
1542482,290,107
1542491,308,107
1542498,319,107
1542513,299,107
1542522,333,107
1542532,313,107
1542532,314,107
1542549,339,107
1542563,313,107
1542574,346,107
1542583,343,107
1542594,334,107
1542599,359,107
1542615,323,107
1542625,336,107
1542633,347,107
1542645,325,107
1542650,365,107
1542665,357,107
1542677,368,107
1542685,408,107
1542696,388,107
1542705,423,107
1542715,424,107
1542728,406,107
1542732,422,107
1542748,370,107
1542759,362,107
1542767,353,107
1542779,309,107
1542789,332,107
1542798,312,107
1542810,307,107
1542815,329,107
1542830,297,107
1542841,318,107
1542848,312,107
1542861,293,107
1542867,324,107
1542867,295,107
1542892,303,107
1542898,314,107
1542912,283,107
1542915,313,107
1542931,296,107
1542944,291,107
1542949,319,107
1542964,290,107
1542975,316,107
1542982,318,107
1542982,300,107
1542999,335,107
1543016,309,107
1543026,314,107
1543032,326,107
1543046,292,107
1543056,319,107
1543065,302,107
1543077,292,107
1543082,316,107
1543097,287,107
1543098,310,107
1543115,314,107
1543129,297,107
1543138,335,107
1543149,313,107
1543159,319,107
1543165,336,107
1543180,303,107
1543189,331,107
1543198,318,107
1543210,310,107
1543221,336,107
1543231,304,107
1543242,324,107
1543249,327,107
1543261,303,107
1543272,335,107
1543282,314,107
1543292,316,107
1543299,339,107
1543299,311,107
1543323,337,107
1543333,330,107
1543344,317,107
1543348,344,107
1543365,314,107
1543375,330,107
1543381,337,107
1543395,313,107
1543406,346,107
1543415,324,107
1543425,325,107
1543432,348,107
1543446,314,107
1543457,348,107
1543465,352,107
1543477,336,107
1543488,362,107
1543499,330,107
1543507,336,107
1543516,343,107
1543528,313,107
1543539,347,107
1543548,331,107
1543559,330,107
1543570,353,107
1543580,314,107
1543590,365,107
1543598,547,104
1543611,659,104
1543622,656,104
1543631,267,104
1543642,272,104
1543649,338,104
1543662,296,104
1543672,321,104
1543682,304,104
1543693,299,104
1543703,325,104
1543713,297,104
1543723,324,104
1543732,329,104
1543744,317,104
1543754,356,104
1543764,332,104
1543765,342,104
1543782,354,104
1543796,319,104
1543806,344,104
1543815,327,104
1543827,323,104
1543832,356,104
1543847,337,104
1543857,373,104
1543865,389,104
1543878,387,104
1543888,429,104
1543898,410,104
1543909,414,104
1543917,413,104
1543930,353,104
1543932,351,104
1543948,315,104
1543961,285,104
1543968,296,104
1543980,260,104
1543982,278,104
1543998,282,104
1544012,261,104
1544021,294,104
1544032,270,104
1544032,277,104
1544049,297,104
1544062,268,104
1544065,298,104
1544082,288,104
1544082,277,104
1544100,305,104
1544114,278,104
1544124,297,104
1544133,304,104
1544133,280,104
1544155,314,104
1544165,295,104
1544175,298,104
1544182,319,104
1544195,287,104
1544198,312,104
1544216,305,104
1544227,290,104
1544233,321,104
1544233,294,104
1544257,309,104
1544265,320,104
1544278,296,104
1544282,329,104
1544298,311,104
1544309,311,104
1544315,332,104
1544329,305,104
1544339,335,104
1544349,333,104
1544360,320,104
1544370,355,104
1544381,328,104
1544383,340,104
1544398,349,104
1544411,320,104
1544422,348,104
1544432,328,104
1544443,324,104
1544448,347,104
1544463,317,104
1544472,340,104
1544482,335,104
1544494,326,104
1544504,368,104
1544514,343,104
1544524,353,104
1544532,361,104
1544545,318,104
1544555,346,104
1544566,325,104
1544576,318,104
1544582,340,104
1544597,307,104
1544607,331,104
1544615,320,104
1544626,344,104
1544637,593,107
1544648,659,107
1544658,608,107
1544666,244,107
1544666,272,107
1544689,342,107
1544699,322,107
1544699,312,107
1544715,338,107
1544730,311,107
1544732,329,107
1544748,326,107
1544761,304,107
1544768,338,107
1544780,319,107
1544791,331,107
1544798,352,107
1544812,328,107
1544820,359,107
1544832,349,107
1544843,338,107
1544849,362,107
1544849,333,107
1544873,358,107
1544882,375,107
1544894,366,107
1544904,413,107
1544915,404,107
1544923,418,107
1544932,443,107
1544932,407,107
1544949,412,107
1544965,369,107
1544976,324,107
1544981,329,107
1544998,284,107
1545000,290,107
1545016,295,107
1545027,272,107
1545037,303,107
1545048,283,107
1545048,282,107
1545065,304,107
1545079,276,107
1545089,302,107
1545098,298,107
1545110,283,107
1545116,314,107
1545131,287,107
1545140,301,107
1545149,310,107
1545149,283,107
1545171,315,107
1545181,299,107
1545192,298,107
1545198,328,107
1545212,302,107
1545222,334,107
1545233,335,107
1545242,318,107
1545249,347,107
1545263,316,107
1545268,319,107
1545281,323,107
1545294,291,107
1545305,320,107
1545315,307,107
1545322,306,107
1545333,337,107
1545346,311,107
1545349,337,107
1545366,336,107
1545376,313,107
1545387,340,107
1545396,314,107
1545408,323,107
1545415,339,107
1545428,314,107
1545439,349,107
1545448,338,107
1545459,329,107
1545466,345,107
1545470,305,107
1545489,314,107
1545498,309,107
1545509,287,107
1545520,323,107
1545531,309,107
1545532,345,107
1545549,394,107
1545562,380,107
1545566,406,111
1545581,377,111
1545592,343,111
1545598,349,111
1545612,299,111
1545623,302,111
1545632,290,111
1545644,259,111
1545653,286,111
1545665,267,111
1545674,297,111
1545681,487,111
1545695,659,111
1545699,659,111
1545715,420,111
1545726,278,111
1545733,378,111
1545746,330,111
1545756,327,111
1545764,327,111
1545777,296,111
1545783,321,111
1545783,293,111
1545798,290,111
1545816,313,111
1545828,297,111
1545833,344,111
1545848,354,111
1545859,353,111
1545866,385,111
1545880,348,111
1545882,352,111
1545899,353,111
1545899,321,111
1545921,350,111
1545930,332,111
1545933,338,111
1545949,371,111
1545949,353,111
1545972,395,111
1545982,406,109
1545992,403,109
1545998,434,109
1546012,391,109
1546023,378,109
1546033,362,109
1546044,309,109
1546054,322,109
1546064,290,109
1546075,279,109
1546082,300,109
1546095,270,109
1546106,294,109
1546115,295,109
1546125,281,109
1546136,319,109
1546146,301,109
1546157,320,109
1546166,341,109
1546166,313,109
1546182,337,109
1546198,317,109
1546208,302,109
1546216,320,109
1546228,284,109
1546239,306,109
1546249,308,109
1546259,290,109
1546269,326,109
1546280,305,109
1546290,319,109
1546299,338,109
1546311,310,109
1546321,335,109
1546331,315,109
1546341,300,109
1546348,322,109
1546362,292,109
1546365,317,109
1546381,330,109
1546393,320,109
1546399,359,109
1546399,338,109
1546415,338,109
1546434,347,109
1546444,307,109
1546455,325,109
1546464,308,109
1546474,297,109
1546481,331,109
1546495,315,109
1546506,347,109
1546515,366,109
1546527,352,109
1546534,385,109
1546547,356,109
1546557,351,109
1546565,359,109
1546565,310,109
1546583,324,109
1546598,319,109
1546608,314,109
1546615,348,109
1546629,316,109
1546639,332,109
1546648,333,109
1546660,306,109
1546665,337,109
1546680,315,109
1546690,316,109
1546698,338,109
1546711,309,109
1546721,333,109
1546732,336,109
1546742,472,110
1546749,659,110
1546763,656,110
1546773,291,110
1546782,262,110
1546793,306,110
1546803,335,110
1546814,313,110
1546824,315,110
1546834,334,110
1546834,298,110
1546849,314,110
1546865,300,110
1546875,281,110
1546882,315,110
1546896,298,110
1546906,325,110
1546915,350,110
1546927,332,110
1546934,362,110
1546934,341,110
1546949,333,110
1546965,354,110
1546978,320,110
1546982,343,110
1546999,352,110
1547009,351,110
1547016,408,110
1547029,405,110
1547034,430,110
1547049,448,110
1547060,406,110
1547066,405,110
1547081,352,110
1547082,312,110
1547099,315,110
1547111,272,110
1547115,291,110
1547131,292,110
1547142,278,110
1547148,317,110
1547163,292,110
1547173,300,110
1547182,314,110
1547182,286,110
1547198,315,110
1547214,302,110
1547224,294,110
1547233,318,110
1547245,285,110
1547248,302,110
1547264,300,110
1547270,273,110
1547282,305,110
1547282,282,110
1547306,294,110
1547315,316,110
1547327,292,110
1547337,325,110
1547348,314,110
1547358,301,110
1547365,326,110
1547378,293,110
1547388,310,110
1547398,314,110
1547409,289,110
1547417,323,110
1547430,303,110
1547440,311,110
1547448,334,110
1547460,307,110
1547471,337,110
1547481,327,110
1547492,312,110
1547498,339,110
1547512,302,110
1547522,314,110
1547532,317,110
1547535,291,110
1547549,328,110
1547563,315,110
1547574,322,110
1547582,346,110
1547594,315,110
1547599,341,110
1547599,333,110
1547616,320,110
1547635,356,110
1547645,328,110
1547655,343,110
1547665,360,110
1547675,343,110
1547683,373,110
1547696,341,110
1547699,330,110
1547715,336,110
1547728,292,110
1547738,306,110
1547748,301,110
1547758,286,110
1547766,325,110
1547779,310,110
1547789,326,110
1547798,354,110
1547809,476,111
1547815,658,111
1547830,657,111
1547840,311,111
1547848,258,111
1547860,294,111
1547865,307,111
1547881,301,111
1547881,289,111
1547899,328,111
1547912,311,111
1547922,328,111
1547932,343,111
1547943,308,111
1547953,330,111
1547963,305,111
1547974,294,111
1547982,319,111
1547982,293,111
1548005,327,111
1548015,354,111
1548026,366,111
1548035,429,111
1548035,434,111
1548056,461,111
1548065,486,111
1548076,454,111
1548082,467,111
1548097,428,111
1548107,391,111
1548116,392,111
1548128,334,111
1548138,324,111
1548148,303,111
1548158,271,111
1548167,299,111
1548180,273,111
1548189,281,111
1548199,302,111
1548210,277,111
1548215,315,111
1548231,311,111
1548241,306,111
1548249,335,111
1548261,300,111
1548266,309,111
1548282,303,111
1548292,268,111
1548299,293,111
1548313,269,111
1548323,278,111
1548332,307,111
1548343,285,111
1548354,322,111
1548364,315,111
1548374,304,111
1548382,331,111
1548395,294,111
1548399,304,111
1548415,308,111
1548425,278,111
1548435,309,111
1548446,284,111
1548449,279,111
1548465,287,111
1548477,245,111
1548482,269,111
1548497,264,111
1548499,261,111
1548516,312,111
1548526,307,111
1548536,350,111
1548548,381,111
1548548,369,111
1548565,405,102
1548580,378,102
1548582,361,102
1548599,360,102
1548599,303,102
1548616,305,102
1548631,286,102
1548636,271,102
1548649,313,102
1548662,298,102
1548665,322,102
1548682,338,102
1548693,311,102
1548699,346,102
1548699,328,102
1548722,314,102
1548732,324,102
1548743,283,102
1548749,303,102
1548749,305,102
1548775,299,102
1548782,348,102
1548782,337,102
1548805,360,102
1548815,380,102
1548825,348,102
1548836,379,102
1548836,484,102
1548851,658,102
1548867,658,114
1548877,318,114
1548882,232,114
1548898,305,114
1548908,277,114
1548915,304,114
1548929,281,114
1548936,292,114
1548948,312,114
1548959,291,114
1548965,334,114
1548980,329,114
1548990,333,114
1548999,370,114
1548999,350,114
1549015,381,114
1549032,384,114
1549041,363,114
1549049,388,114
1549062,356,114
1549073,356,114
1549082,368,114
1549093,334,114
1549099,365,114
1549099,363,114
1549124,365,114
1549132,406,114
1549144,386,114
1549154,413,114
1549165,415,114
1549175,379,114
1549182,391,114
1549195,347,114
1549205,336,114
1549215,342,114
1549226,305,114
1549231,330,114
1549247,318,114
1549257,305,114
1549266,335,114
1549266,301,114
1549288,321,114
1549298,321,114
1549299,293,114
1549315,320,114
1549329,294,114
1549337,290,114
1549348,305,114
1549348,273,114
1549366,300,114
1549374,295,114
1549382,289,114
1549398,327,114
1549411,301,114
1549421,318,114
1549432,328,114
1549442,300,114
1549449,326,114
1549462,302,114
1549472,299,114
1549482,318,114
1549493,284,114
1549499,312,114
1549514,304,114
1549523,294,114
1549531,328,114
1549544,298,114
1549549,313,114
1549565,321,114
1549575,293,114
1549582,329,114
1549596,320,114
1549599,322,114
1549615,340,114
1549626,303,114
1549631,318,114
1549647,308,114
1549658,288,114
1549666,318,114
1549678,288,114
1549688,301,114
1549698,317,114
1549708,292,114
1549715,320,114
1549729,413,103
1549740,657,103
1549748,658,103
1549760,347,103
1549765,213,103
1549781,302,103
1549791,295,103
1549799,324,103
1549812,299,103
1549822,313,103
1549832,330,103
1549839,304,103
1549848,336,103
1549862,326,103
1549873,328,103
1549883,362,103
1549883,335,103
1549898,363,103
1549905,366,103
1549924,350,103
1549932,384,103
1549944,358,103
1549955,365,103
1549966,380,103
1549971,355,103
1549983,392,103
1549996,384,103
1549998,383,103
1550015,420,103
1550023,395,103
1550033,418,111
1550038,411,111
1550049,365,111
1550066,374,111
1550075,322,111
1550089,307,111
1550099,307,111
1550099,268,111
1550115,293,111
1550130,280,111
1550140,270,111
1550148,299,111
1550160,269,111
1550170,291,111
1550180,297,111
1550192,278,111
1550199,310,111
1550212,287,111
1550221,295,111
1550232,317,111
1550242,287,111
1550249,313,111
1550263,301,111
1550274,292,111
1550281,321,111
1550294,292,111
1550304,312,111
1550314,320,111
1550325,298,111
1550332,332,111
1550346,310,111
1550356,315,111
1550365,333,111
1550375,302,111
1550381,326,111
1550397,316,111
1550399,310,111
1550415,344,111
1550428,313,111
1550432,326,111
1550448,327,111
1550449,297,111
1550465,327,111
1550475,306,111
1550482,308,111
1550499,335,111
1550499,317,111
1550515,353,111
1550530,343,111
1550540,378,111
1550549,622,107
1550549,659,107
1550571,589,107
1550580,226,107
1550591,258,107
1550599,317,107
1550599,287,107
1550616,289,107
1550632,322,107
1550643,304,107
1550649,344,107
1550663,348,107
1550673,341,107
1550682,374,107
1550694,344,107
1550704,349,107
1550714,352,107
1550725,321,107
1550731,353,107
1550746,335,107
1550755,336,107
1550766,365,107
1550777,340,107
1550782,373,107
1550797,379,107
1550799,373,107
1550816,411,107
1550827,389,107
1550834,400,107
1550848,408,107
1550858,363,107
1550865,363,107
1550865,316,107
1550881,290,107
1550898,296,107
1550910,257,107
1550915,283,107
1550930,286,107
1550941,276,107
1550948,318,107
1550961,298,107
1550971,312,107
1550981,330,107
1550992,303,107
1550998,332,107
1551013,309,107
1551018,293,107
1551032,311,107
1551043,275,107
1551054,294,107
1551064,291,107
1551075,270,107
1551082,303,107
1551095,281,107
1551105,295,107
1551115,319,107
1551125,292,107
1551132,326,107
1551146,314,107
1551156,308,107
1551165,334,107
1551177,300,107
1551187,317,107
1551197,316,107
1551207,291,107
1551215,324,107
1551228,303,107
1551238,314,107
1551248,334,107
1551258,308,107
1551267,341,107
1551279,330,107
1551289,318,107
1551298,349,107
1551310,324,107
1551315,342,107
1551331,339,107
1551340,313,107
1551349,336,107
1551361,309,107
1551366,310,107
1551382,329,107
1551393,302,107
1551399,335,107
1551413,327,107
1551423,315,107
1551432,350,107
1551443,461,102
1551454,658,102
1551464,658,102
1551474,339,102
1551481,258,102
1551494,312,102
1551505,310,102
1551516,323,102
1551516,290,102
1551531,319,102
1551548,318,102
1551556,311,102
1551566,347,102
1551573,322,102
1551582,341,102
1551598,347,102
1551608,325,102
1551615,360,102
1551628,337,102
1551638,334,102
1551648,352,102
1551659,319,102
1551669,348,102
1551679,346,102
1551682,339,102
1551699,379,102
1551710,362,102
1551721,389,102
1551731,410,102
1551741,391,102
1551748,421,104
1551762,387,104
1551772,363,104
1551781,362,104
1551793,306,104
1551798,313,104
1551813,296,104
1551824,272,104
1551832,297,104
1551844,264,104
1551854,278,104
1551865,288,104
1551875,264,104
1551883,296,104
1551883,279,104
1551900,282,104
1551916,306,104
1551926,270,104
1551932,289,104
1551947,280,104
1551957,261,104
1551965,293,104
1551977,267,104
1551982,283,104
1551998,300,104
1551999,274,104
1552015,306,104
1552028,290,104
1552039,286,104
1552048,308,104
1552060,276,104
1552068,297,104
1552068,294,104
1552083,275,104
1552099,307,104
1552111,280,104
1552115,294,104
1552131,310,104
1552142,283,104
1552152,320,104
1552161,302,104
1552172,295,104
1552182,319,104
1552194,284,104
1552199,309,104
1552214,316,104
1552216,301,104
1552232,330,104
1552241,300,104
1552255,302,104
1552265,311,104
1552276,281,104
1552282,315,104
1552296,302,104
1552306,296,104
1552315,322,104
1552326,292,104
1552331,305,104
1552347,388,104
1552357,630,106
1552366,659,106
1552378,426,106
1552388,188,106
1552398,293,106
1552409,286,106
1552416,316,106
1552416,303,106
1552440,304,106
1552448,338,106
1552459,312,106
1552470,338,106
1552480,348,106
1552483,335,106
1552498,371,106
1552511,351,106
1552522,364,106
1552532,389,106
1552542,367,106
1552548,402,106
1552562,392,106
1552571,387,106
1552582,419,106
1552593,401,106
1552600,433,106
1552614,448,106
1552623,445,106
1552632,488,106
1552642,467,106
1552656,471,106
1552665,472,106
1552674,412,106
1552682,407,106
1552682,366,106
1552700,335,106
1552715,348,106
1552727,311,106
1552732,326,106
1552747,330,106
1552757,307,106
1552765,342,106
1552778,323,106
1552789,327,106
1552799,345,106
1552808,316,106
1552818,344,106
1552818,333,106
1552832,322,106
1552849,348,106
1552860,317,106
1552865,334,106
1552881,339,106
1552882,317,106
1552899,349,106
1552911,328,106
1552922,329,106
1552932,346,106
1552942,312,106
1552949,334,106
1552963,321,106
1552973,305,106
1552981,335,106
1552993,305,106
1552998,319,106
1553014,326,106
1553020,298,106
1553032,334,106
1553045,321,106
1553055,327,106
1553066,344,106
1553076,314,106
1553082,330,106
1553097,316,106
1553107,298,106
1553115,326,106
1553127,297,106
1553132,315,106
1553147,323,106
1553149,293,106
1553165,315,106
1553179,392,106
1553183,649,111
1553198,659,111
1553209,406,111
1553219,224,111
1553230,309,111
1553233,306,111
1553248,328,111
1553261,300,111
1553271,316,111
1553281,328,111
1553291,302,111
1553298,334,111
1553311,319,111
1553323,323,111
1553332,349,111
1553343,321,111
1553348,353,111
1553363,354,111
1553373,339,111
1553382,369,111
1553394,338,111
1553400,351,111
1553415,363,111
1553425,343,111
1553432,381,111
1553445,377,111
1553456,389,111
1553465,425,111
1553477,399,111
1553482,417,111
1553496,391,111
1553507,342,111
1553515,346,111
1553527,295,111
1553537,288,111
1553548,293,111
1553558,264,111
1553567,299,111
1553579,287,111
1553582,285,111
1553599,308,111
1553610,275,111
1553615,296,111
1553630,294,111
1553632,274,111
1553648,308,111
1553660,282,111
1553671,293,111
1553682,305,111
1553692,273,111
1553699,301,111
1553712,283,111
1553722,275,111
1553732,300,111
1553743,269,111
1553749,293,111
1553764,296,111
1553774,283,111
1553782,320,111
1553794,297,111
1553805,304,111
1553815,316,111
1553825,282,111
1553832,313,111
1553845,300,111
1553856,293,111
1553865,321,111
1553876,292,111
1553886,319,111
1553896,326,111
1553907,305,111
1553916,336,111
1553927,308,111
1553932,312,111
1553949,325,111
1553958,293,111
1553966,320,111
1553969,303,111
1553982,292,111
1553999,322,111
1554010,295,111
1554015,317,111
1554030,324,111
1554034,305,111
1554050,341,111
1554061,315,111
1554071,320,111
1554082,339,111
1554092,308,111
1554098,336,111
1554112,325,111
1554122,315,111
1554133,343,111
1554144,308,111
1554148,326,111
1554165,329,111
1554174,306,111
1554182,340,111
1554195,321,111
1554205,326,111
1554215,344,111
1554226,312,111
1554232,346,111
1554247,341,111
1554256,331,111
1554265,353,111
1554277,321,111
1554287,333,111
1554298,332,111
1554307,307,111
1554317,339,111
1554328,318,111
1554339,320,111
1554349,342,111
1554349,309,111
1554366,333,111
1554380,428,103
1554382,653,103
1554399,659,103
1554410,430,103
1554417,234,103
1554431,322,103
1554441,298,103
1554449,320,103
1554449,300,103
1554466,306,103
1554482,329,103
1554482,299,103
1554499,330,103
1554499,323,103
1554523,314,103
1554532,350,103
1554543,323,103
1554554,338,103
1554564,344,103
1554575,312,103
1554582,341,103
1554594,319,103
1554605,323,103
1554616,347,103
1554619,320,103
1554633,357,103
1554645,364,103
1554657,366,103
1554666,412,103
1554675,392,103
1554688,415,103
1554697,421,103
1554699,378,103
1554716,387,103
1554729,346,103
1554739,328,103
1554749,340,103
1554760,301,103
1554766,324,103
1554780,318,103
1554790,299,103
1554798,326,103
1554811,291,103
1554821,299,103
1554832,307,103
1554841,280,103
1554849,312,103
1554849,296,103
1554873,296,103
1554882,321,103
1554882,292,103
1554899,320,103
1554914,317,103
1554924,300,103
1554932,331,103
1554944,300,103
1554955,315,103
1554964,327,103
1554975,300,103
1554981,330,103
1554996,312,103
1555006,306,103
1555015,328,103
1555027,295,103
1555032,320,103
1555047,318,103
1555057,301,103
1555065,333,103
1555077,307,103
1555088,318,103
1555098,329,103
1555109,298,103
1555115,328,103
1555129,316,103
1555139,308,103
1555149,332,103
1555160,302,103
1555165,323,103
1555165,320,103
1555190,302,103
1555198,331,103
1555198,307,103
1555221,319,103
1555231,332,103
1555242,304,103
1555248,334,103
1555262,319,103
1555272,310,103
1555282,332,103
1555293,301,103
1555299,320,103
1555314,317,103
1555318,298,103
1555332,327,103
1555345,301,103
1555355,312,103
1555365,329,103
1555375,300,103
1555382,328,103
1555395,314,103
1555406,316,103
1555415,351,103
1555427,314,103
1555437,331,103
1555447,329,103
1555457,297,103
1555467,325,103
1555478,298,103
1555488,305,103
1555498,318,103
1555508,291,103
1555515,320,103
1555529,294,103
1555532,344,103
1555549,618,103
1555561,659,103
1555565,528,103
1555580,202,103
1555590,260,103
1555599,322,103
1555611,293,103
1555622,304,103
1555632,325,103
1555642,297,103
1555649,331,103
1555663,322,103
1555673,318,103
1555683,353,103
1555683,330,103
1555698,352,103
1555715,359,103
1555719,343,103
1555732,381,103
1555745,361,103
1555749,370,103
1555764,392,103
1555773,371,103
1555781,408,103
1555796,408,103
1555807,411,103
1555816,451,103
1555826,432,103
1555837,460,103
1555847,466,103
1555849,438,103
1555865,446,102
1555879,390,102
1555882,365,102
1555898,359,102
1555909,314,102
1555916,334,102
1555929,319,102
1555933,309,102
1555948,339,102
1555961,310,102
1555971,327,102
1555981,334,102
1555982,311,102
1555999,342,102
1556012,322,102
1556022,325,102
1556032,343,102
1556042,311,102
1556049,337,102
1556064,325,102
1556074,315,102
1556082,346,102
1556094,320,102
1556103,340,102
1556114,347,102
1556125,324,102
1556131,355,102
1556145,331,102
1556149,330,102
1556165,346,102
1556176,314,102
1556183,338,102
1556197,326,102
1556207,314,102
1556215,343,102
1556227,315,102
1556238,332,102
1556248,342,102
1556258,321,102
1556268,350,102
1556279,326,102
1556289,326,102
1556299,346,102
1556309,316,102
1556315,342,102
1556330,333,102
1556332,319,102
1556349,349,102
1556349,318,102
1556366,333,102
1556382,340,102
1556391,318,102
1556398,362,102
1556413,344,102
1556423,341,102
1556432,361,102
1556443,325,102
1556449,346,102
1556464,335,102
1556469,318,102
1556482,346,102
1556482,317,102
1556505,331,102
1556515,338,102
1556524,300,102
1556532,408,100
1556546,626,100
1556548,658,100
1556565,527,100
1556576,200,100
1556582,309,100
1556582,323,100
1556602,296,100
1556616,326,100
1556628,299,100
1556638,314,100
1556649,328,100
1556659,304,100
1556666,338,100
1556680,323,100
1556690,326,100
1556699,354,100
1556710,329,100
1556717,358,100
1556731,355,100
1556741,334,100
1556749,360,100
1556761,331,100
1556766,345,100
1556781,362,100
1556791,345,100
1556798,390,100
1556812,385,100
1556823,392,100
1556832,421,100
1556843,391,100
1556854,404,110
1556863,371,110
1556874,325,110
1556882,329,110
1556895,283,110
1556905,285,110
1556915,291,110
1556926,263,110
1556932,294,110
1556946,276,110
1556956,274,110
1556965,297,110
1556977,269,110
1556982,293,110
1556998,292,110
1557007,273,110
1557016,303,110
1557028,276,110
1557038,284,110
1557048,293,110
1557060,261,110
1557065,291,110
1557079,273,110
1557090,269,110
1557099,295,110
1557110,268,110
1557120,296,110
1557131,297,110
1557141,283,110
1557149,318,110
1557162,292,110
1557171,302,110
1557181,313,110
1557193,283,110
1557198,311,110
1557198,296,110
1557216,291,110
1557232,321,110
1557243,293,110
1557249,317,110
1557264,318,110
1557275,298,110
1557282,327,110
1557295,298,110
1557305,304,110
1557315,315,110
1557326,284,110
1557331,313,110
1557346,302,110
1557357,300,110
1557365,330,110
1557367,301,110
1557382,326,110
1557397,327,110
1557408,308,110
1557415,337,110
1557429,311,110
1557433,319,110
1557449,336,110
1557460,307,110
1557465,336,110
1557479,320,110
1557490,312,110
1557498,336,110
1557510,302,110
1557516,320,110
1557532,322,110
1557541,302,110
1557549,337,110
1557549,317,110
1557572,327,110
1557582,342,110
1557593,323,110
1557599,360,110
1557613,347,110
1557624,332,110
1557632,357,110
1557645,320,110
1557655,338,110
1557665,338,110
1557675,315,110
1557682,346,110
1557695,319,110
1557706,323,110
1557716,328,110
1557726,302,110
1557732,479,100
1557747,657,100
1557757,656,100
1557766,328,100
1557766,234,100
1557788,329,100
1557797,325,100
1557808,298,100
1557815,334,100
1557829,314,100
1557832,324,100
1557849,342,100
1557860,311,100
1557865,342,100
1557880,329,100
1557890,322,100
1557898,351,100
1557911,321,100
1557921,338,100
1557931,339,100
1557941,317,100
1557949,351,100
1557962,331,100
1557972,339,100
1557982,365,100
1557993,346,100
1557998,388,100
1558014,391,100
1558024,392,100
1558032,431,100
1558044,402,105
1558050,412,105
1558065,397,105
1558075,348,105
1558082,361,105
1558096,324,105
1558106,321,105
1558116,342,105
1558126,312,105
1558132,340,105
1558148,328,105
1558157,310,105
1558165,328,105
1558178,288,105
1558182,300,105
1558198,302,105
1558209,276,105
1558217,312,105
1558229,296,105
