Timestamp,ECGValue,BPM
1815593,316,106
1815604,283,106
1815613,305,106
1815620,309,106
1815634,284,106
1815645,326,106
1815653,307,106
1815665,316,106
1815673,344,106
1815673,316,106
1815696,351,106
1815703,344,106
1815716,334,106
1815727,369,106
1815737,340,106
1815747,365,106
1815753,387,106
1815767,370,106
1815778,422,106
1815786,407,106
1815799,411,107
1815809,432,107
1815819,381,107
1815828,381,107
1815837,339,107
1815837,294,107
1815853,309,107
1815868,264,107
1815881,282,107
1815891,297,107
1815901,271,107
1815903,313,107
1815920,294,107
1815932,290,107
1815937,317,107
1815953,278,107
1815954,300,107
1815970,294,107
1815983,272,107
1815993,304,107
1816003,271,107
1816014,287,107
1816023,308,107
1816023,282,107
1816037,324,107
1816053,310,107
1816065,310,107
1816075,339,107
1816085,302,107
1816096,322,107
1816103,317,107
1816117,292,107
1816127,326,107
1816136,290,107
1816147,304,107
1816153,322,107
1816168,288,107
1816178,322,107
1816187,305,107
1816199,300,107
1816209,332,107
1816219,300,107
1816230,326,107
1816237,328,107
1816250,305,107
1816261,345,107
1816270,317,107
1816281,326,107
1816287,346,107
1816292,310,107
1816311,343,107
1816320,327,107
1816332,315,107
1816342,349,107
1816353,315,107
1816363,340,107
1816370,348,107
1816383,325,107
1816387,362,107
1816403,340,107
1816414,358,107
1816420,385,107
1816435,348,107
1816445,383,107
1816454,367,107
1816465,354,107
1816471,389,107
1816477,360,107
1816497,381,107
1816503,386,107
1816512,359,107
1816520,389,107
1816537,354,107
1816548,461,109
1816553,659,109
1816568,659,109
1816579,525,109
1816588,261,109
1816598,340,109
1816603,391,109
1816620,351,109
1816630,368,109
1816637,376,109
1816651,346,109
1816653,379,109
1816669,356,109
1816681,357,109
1816687,384,109
1816687,352,109
1816711,390,109
1816721,392,109
1816732,382,109
1816743,421,109
1816753,390,109
1816763,404,109
1816769,413,109
1816784,377,109
1816794,413,109
1816803,396,109
1816814,402,109
1816822,444,109
1816835,425,109
1816837,464,109
1816854,469,109
1816866,440,109
1816877,454,109
1816886,388,109
1816896,363,109
1816903,349,109
1816917,299,109
1816928,327,109
1816937,309,109
1816948,311,109
1816953,348,109
1816969,317,109
1816972,347,109
1816987,341,109
1816987,309,109
1817010,339,109
1817020,302,109
1817030,307,109
1817037,320,109
1817037,287,109
1817061,323,109
1817070,307,109
1817081,298,109
1817087,330,109
1817087,296,109
1817112,323,109
1817120,326,109
1817125,300,109
1817143,335,109
1817153,304,109
1817163,311,109
1817170,329,109
1817170,291,109
1817194,318,109
1817203,300,109
1817215,286,109
1817225,314,109
1817236,278,109
1817246,301,109
1817253,310,109
1817266,287,109
1817277,327,109
1817286,302,109
1817298,305,109
1817304,331,109
1817316,293,109
1817324,323,109
1817337,309,109
1817348,292,109
1817359,326,109
1817368,291,109
1817379,313,109
1817386,323,109
1817400,296,109
1817410,335,109
1817420,310,109
1817431,312,109
1817437,334,109
1817437,296,109
1817461,329,109
1817469,320,109
1817482,303,109
1817486,341,109
1817502,318,109
1817513,341,109
1817519,349,109
1817533,316,109
1817536,347,109
1817553,315,109
1817563,308,109
1817573,335,109
1817585,298,109
1817588,328,109
1817603,322,109
1817616,303,109
1817624,327,109
1817636,345,109
1817646,584,111
1817654,659,111
1817667,548,111
1817678,228,111
1817687,279,111
1817687,303,111
1817703,318,111
1817718,278,111
1817729,305,111
1817736,302,111
1817749,280,111
1817760,316,111
1817770,285,111
1817775,303,111
1817787,320,111
1817787,292,111
1817811,335,111
1817820,321,111
1817831,316,111
1817837,351,111
1817851,317,111
1817854,345,111
1817870,348,111
1817882,332,111
1817892,378,111
1817903,363,111
1817913,387,111
1817920,417,111
1817934,393,111
1817944,431,111
1817953,412,111
1817965,388,111
1817970,390,111
1817970,324,111
1817986,322,111
1818004,306,111
1818016,267,111
1818026,300,111
1818036,273,111
1818047,282,111
1818054,306,111
1818054,272,111
1818070,306,111
1818086,293,111
1818098,278,111
1818108,310,111
1818119,271,111
1818129,289,111
1818136,292,111
1818149,264,111
1818160,303,111
1818170,280,111
1818181,285,111
1818187,311,111
1818187,277,111
1818211,315,111
1818220,302,111
1818231,283,111
1818237,316,111
1818251,278,111
1818254,296,111
1818269,302,111
1818283,273,111
1818292,314,111
1818304,288,111
1818314,291,111
1818323,320,111
1818334,284,111
1818337,315,111
1818353,307,111
1818366,289,111
1818370,323,111
1818385,289,111
1818396,307,111
1818404,318,111
1818417,288,111
1818427,325,111
1818436,301,111
1818446,300,111
1818453,329,111
1818467,291,111
1818472,322,111
1818486,317,111
1818499,300,111
1818504,335,111
1818519,304,111
1818529,320,111
1818536,334,111
1818550,300,111
1818554,335,111
1818570,313,111
1818581,304,111
1818589,333,111
1818600,296,111
1818611,323,111
1818620,320,111
1818631,299,111
1818637,339,111
1818653,306,111
1818654,316,111
1818670,333,111
1818670,307,111
1818693,345,111
1818703,321,111
1818712,306,111
1818720,331,111
1818735,288,111
1818744,313,111
1818753,311,111
1818753,286,111
1818776,322,111
1818786,294,111
1818796,298,111
1818803,303,111
1818817,314,111
1818827,568,105
1818836,659,105
1818847,545,105
1818853,218,105
1818868,254,105
1818878,309,105
1818886,297,105
1818899,269,105
1818903,308,105
1818919,277,105
1818923,285,105
1818936,306,105
1818950,272,105
1818953,312,105
1818970,304,105
1818980,297,105
1818987,337,105
1819001,312,105
1819012,334,105
1819021,342,105
1819032,317,105
1819042,358,105
1819053,335,105
1819063,347,105
1819073,376,105
1819083,349,105
1819087,393,105
1819103,398,105
1819114,394,105
1819120,433,105
1819120,398,105
1819145,403,106
1819153,380,106
1819166,319,106
1819175,328,106
1819187,283,106
1819196,273,106
1819203,299,106
1819217,266,106
1819227,302,106
1819237,299,106
1819248,280,106
1819254,312,106
1819254,277,106
1819271,293,106
1819287,302,106
1819299,274,106
1819303,316,106
1819320,292,106
1819320,287,106
1819336,317,106
1819350,284,106
1819360,317,106
1819369,317,106
1819381,302,106
1819387,342,106
1819402,314,106
1819411,327,106
1819421,340,106
1819432,306,106
1819442,342,106
1819452,318,106
1819463,310,106
1819469,344,106
1819483,310,106
1819494,339,106
1819503,336,106
1819514,318,106
1819525,355,106
1819535,328,106
1819537,342,106
1819554,356,106
1819565,324,106
1819569,360,106
1819586,342,106
1819597,334,106
1819603,360,106
1819617,326,106
1819625,350,106
1819636,347,106
1819648,324,106
1819658,358,106
1819668,330,106
1819680,341,106
1819686,360,106
1819699,329,106
1819703,374,106
1819720,376,106
1819730,375,106
1819737,406,111
1819751,370,111
1819754,388,111
1819770,387,111
1819781,360,111
1819786,395,111
1819802,364,111
1819805,372,111
1819820,391,111
1819820,355,111
1819838,388,111
1819853,507,111
1819863,659,111
1819870,660,111
1819870,460,111
1819887,282,111
1819903,378,111
1819916,363,111
1819920,393,111
1819936,369,111
1819945,375,111
1819954,397,111
1819954,360,111
1819970,393,111
1819986,384,111
1819997,373,111
1820003,408,111
1820018,379,111
1820028,408,111
1820036,422,111
1820048,396,111
1820053,432,111
1820069,402,111
1820079,404,111
1820087,425,111
1820099,394,111
1820104,428,111
1820120,433,111
1820120,432,111
1820136,479,111
1820152,454,111
1820162,473,111
1820169,470,111
1820181,407,111
1820192,403,111
1820202,344,111
1820214,315,111
1820220,323,111
1820233,280,111
1820243,307,111
1820253,302,111
1820264,293,111
1820271,330,111
1820271,296,111
1820295,308,111
1820303,315,111
1820315,278,111
1820326,307,111
1820336,283,111
1820347,280,111
1820353,306,111
1820367,271,111
1820378,301,111
1820387,295,111
1820387,272,111
1820403,306,111
1820417,272,111
1820429,289,111
1820437,301,111
1820449,266,111
1820455,302,111
1820470,284,111
1820479,278,111
1820487,302,111
1820500,264,111
1820503,291,111
1820520,287,111
1820531,264,111
1820541,302,111
1820552,273,111
1820562,289,111
1820570,310,111
1820582,279,111
1820587,316,111
1820602,298,111
1820613,289,111
1820620,317,111
1820634,279,111
1820644,304,111
1820653,301,111
1820665,277,111
1820674,315,111
1820686,285,111
1820695,295,111
1820702,315,111
1820715,282,111
1820722,319,111
1820736,303,111
1820747,293,111
1820753,326,111
1820753,289,111
1820777,313,111
1820786,319,111
1820786,295,111
1820803,330,111
1820819,306,111
1820828,328,111
1820837,350,111
1820837,307,111
1820853,339,111
1820870,318,111
1820881,301,111
1820886,329,111
1820901,294,111
1820911,315,111
1820920,320,111
1820926,295,111
1820936,323,111
1820952,311,111
1820962,483,109
1820970,659,109
1820970,654,109
1820987,281,109
1821003,252,109
1821013,302,109
1821020,326,109
1821020,284,109
1821037,304,109
1821053,310,109
1821065,283,109
1821075,322,109
1821085,298,109
1821087,303,109
1821103,331,109
1821116,302,109
1821127,342,109
1821137,334,109
1821137,322,109
1821153,360,109
1821168,328,109
1821178,347,109
1821187,357,109
1821199,333,109
1821208,380,109
1821218,369,109
1821229,382,109
1821237,424,109
1821249,398,109
1821254,436,109
1821270,429,109
1821280,404,109
1821287,412,109
1821287,346,109
1821311,331,109
1821320,317,109
1821320,272,109
1821342,302,109
1821352,277,109
1821362,276,109
1821369,304,109
1821383,268,109
1821394,302,109
1821404,304,109
1821404,286,109
1821420,319,109
1821435,286,109
1821444,298,109
1821453,310,109
1821465,274,109
1821474,310,109
1821485,289,109
1821487,283,109
1821503,313,109
1821516,275,109
1821523,304,109
1821537,302,109
1821548,282,109
1821553,320,109
1821564,288,109
1821570,299,109
1821587,313,109
1821587,278,109
1821604,314,109
1821619,295,109
1821630,288,109
1821637,318,109
1821650,283,109
1821660,310,109
1821670,310,109
1821681,287,109
1821687,328,109
1821687,296,109
1821712,305,109
1821720,322,109
1821732,287,109
1821742,322,109
1821753,305,109
1821763,299,109
1821770,331,109
1821783,296,109
1821794,322,109
1821803,325,109
1821813,300,109
1821823,335,109
1821835,303,109
1821845,309,109
1821853,329,109
1821865,295,109
1821876,331,109
1821887,318,109
1821896,308,109
1821904,341,109
1821904,303,109
1821921,325,109
1821937,326,109
1821937,298,109
1821954,333,109
1821967,305,109
1821979,313,109
1821987,334,109
1822000,296,109
1822003,332,109
1822020,314,109
1822030,303,109
1822036,333,109
1822036,297,109
1822053,323,109
1822069,339,109
1822081,306,109
1822087,338,109
1822087,310,109
1822103,307,109
1822119,327,109
1822133,288,109
1822143,318,109
1822153,304,109
1822164,288,109
1822171,320,109
1822184,275,109
1822194,328,109
1822203,538,106
1822203,658,106
1822225,614,106
1822234,207,106
1822245,261,106
1822254,326,106
1822254,280,106
1822271,306,106
1822287,296,106
1822297,282,106
1822304,319,106
1822313,283,106
1822327,303,106
1822338,316,106
1822348,294,106
1822353,335,106
1822369,320,106
1822379,329,106
1822386,358,106
1822399,323,106
1822410,355,106
1822420,353,106
1822430,337,106
1822436,377,106
1822451,353,106
1822461,378,106
1822471,404,106
1822481,384,106
1822487,431,106
1822487,416,106
1822512,415,106
1822520,429,106
1822533,366,106
1822543,359,106
1822553,327,106
1822563,281,106
1822570,306,106
1822584,270,106
1822587,284,106
1822603,304,106
1822614,277,106
1822624,315,106
1822635,296,106
1822645,292,106
1822653,321,106
1822666,284,106
1822672,308,106
1822687,308,106
1822688,285,106
1822703,321,106
1822717,294,106
1822728,307,106
1822737,329,106
1822748,297,106
1822754,334,106
1822769,318,106
1822779,313,106
1822787,343,106
1822787,308,106
1822805,331,106
1822820,326,106
1822831,298,106
1822837,330,106
1822851,299,106
1822861,306,106
1822869,323,106
1822882,290,106
1822892,324,106
1822903,312,106
1822904,306,106
1822920,341,106
1822933,308,106
1822944,334,106
1822953,337,106
1822964,314,106
1822971,351,106
1822971,324,106
1822995,332,106
1823003,352,106
1823015,316,106
1823021,351,106
1823021,340,106
1823047,329,106
1823054,366,106
1823066,333,106
1823077,360,106
1823086,379,106
1823097,363,106
1823103,397,106
1823118,371,106
1823128,372,106
1823137,391,106
1823148,357,106
1823156,391,106
1823169,378,106
1823179,365,106
1823187,400,106
1823187,361,106
1823211,373,106
1823221,484,107
1823230,658,107
1823236,660,107
1823251,537,107
1823262,263,107
1823270,379,107
1823282,357,107
1823292,381,107
1823303,368,107
1823313,353,107
1823323,386,107
1823323,350,107
1823336,368,107
1823353,378,107
1823364,356,107
1823375,396,107
1823384,374,107
1823387,385,107
1823404,417,107
1823416,387,107
1823426,420,107
1823436,412,107
1823446,396,107
1823453,428,107
1823466,392,107
1823477,408,107
1823487,427,107
1823498,410,107
1823504,461,107
1823504,451,107
1823529,454,107
1823537,473,107
1823549,410,107
1823553,400,107
1823570,356,107
1823579,312,107
1823587,327,107
1823601,287,107
1823610,303,107
1823619,320,107
1823632,297,107
1823637,335,107
1823653,312,107
1823653,307,107
1823671,327,107
1823682,285,107
1823693,308,107
1823703,298,107
1823714,275,107
1823722,308,107
1823734,279,107
1823744,293,107
1823753,306,107
1823753,276,107
1823769,315,107
1823784,298,107
1823792,297,107
1823803,328,107
1823816,291,107
1823826,316,107
1823837,310,107
1823847,287,107
1823854,320,107
1823868,281,107
1823874,288,107
1823887,298,107
1823898,264,107
1823904,299,107
1823919,281,107
1823921,281,107
1823936,315,107
1823950,282,107
1823960,311,107
1823971,309,107
1823980,285,107
1823987,320,107
1824001,286,107
1824004,296,107
1824021,315,107
1824032,283,107
1824037,317,107
1824037,302,107
1824062,295,107
1824070,324,107
1824082,288,107
1824092,312,107
1824103,312,107
1824114,289,107
1824121,327,107
1824134,298,107
1824145,307,107
1824153,327,107
1824166,290,107
1824176,321,107
1824185,313,107
1824195,316,107
1824203,336,107
1824216,299,107
1824222,319,107
1824236,315,107
1824248,288,107
1824254,325,107
1824268,296,107
1824278,300,107
1824286,320,107
1824298,281,107
1824304,309,107
1824320,406,109
1824321,647,109
1824337,658,109
1824337,361,109
1824360,217,109
1824369,308,109
1824381,284,109
1824387,311,109
1824402,282,109
1824411,287,109
1824421,309,109
1824432,273,109
1824442,306,109
1824453,295,109
1824463,286,109
1824471,322,109
1824471,294,109
1824486,323,109
1824503,334,109
1824514,313,109
1824521,355,109
1824534,332,109
1824536,339,109
1824553,368,109
1824565,341,109
1824576,383,109
1824586,385,109
1824596,384,109
1824603,433,109
1824617,408,109
1824627,432,109
1824636,434,109
1824648,382,109
1824653,386,109
1824668,328,109
1824679,304,109
1824687,312,109
1824699,266,109
1824704,298,109
1824719,292,109
1824730,279,109
1824736,317,109
1824750,284,109
1824753,303,109
1824770,313,109
1824781,284,109
1824786,318,109
1824786,292,109
1824812,290,109
1824821,314,109
1824821,279,109
1824837,310,109
1824852,302,109
1824863,285,109
1824870,324,109
1824883,294,109
1824887,312,109
1824903,323,109
1824915,290,109
1824924,326,109
1824935,300,109
1824936,295,109
1824953,320,109
1824966,283,109
1824974,312,109
1824986,308,109
1824997,290,109
1825003,331,109
1825003,302,109
1825027,317,109
1825036,331,109
1825048,299,109
1825053,336,109
1825069,314,109
1825075,310,109
1825087,334,109
1825099,296,109
1825103,326,109
1825120,322,109
1825126,303,109
1825136,341,109
1825150,311,109
1825154,327,109
1825170,341,109
1825177,308,109
1825185,344,109
1825201,322,109
1825201,315,109
1825221,343,109
1825232,307,109
1825243,335,109
1825247,333,109
1825263,314,109
1825274,354,109
1825281,323,109
1825294,335,109
1825298,349,109
1825314,316,109
1825324,352,109
1825330,333,109
1825330,326,109
1825356,354,109
1825365,317,109
1825376,342,109
1825381,339,109
1825396,315,109
1825398,354,109
1825414,325,109
1825427,336,109
1825432,356,109
1825448,338,109
1825459,373,109
1825467,347,109
1825479,336,109
1825481,357,109
1825497,315,109
1825510,332,109
1825520,331,109
1825531,307,109
1825541,345,109
1825548,316,109
1825561,314,109
1825566,359,109
1825580,508,102
1825592,659,102
1825597,651,102
1825597,237,102
1825622,290,102
1825630,305,102
1825630,313,102
1825654,312,102
1825664,287,102
1825674,325,102
1825681,298,102
1825695,303,102
1825697,322,102
1825714,289,102
1825722,328,102
1825731,319,102
1825731,312,102
1825749,348,102
1825765,314,102
1825776,339,102
1825781,345,102
1825796,321,102
1825798,362,102
1825814,339,102
1825828,352,102
1825838,384,102
1825847,362,102
1825859,409,102
1825865,407,102
1825880,398,102
1825881,429,103
1825899,384,103
1825910,380,103
1825918,355,103
1825930,300,103
1825941,315,103
1825947,275,103
1825961,273,103
1825972,294,103
1825981,259,103
1825981,293,103
1825998,285,103
1826012,272,103
1826022,307,103
1826031,273,103
1826031,291,103
1826054,294,103
1826063,262,103
1826075,298,103
1826081,272,103
1826081,276,103
1826105,304,103
1826114,274,103
1826126,311,103
1826131,304,103
1826146,286,103
1826148,320,103
1826165,285,103
1826178,300,103
1826187,306,103
1826197,274,103
1826208,310,103
1826216,286,103
1826229,289,103
1826239,317,103
1826247,280,103
1826259,315,103
1826269,310,103
1826280,293,103
1826290,326,103
1826297,291,103
1826297,304,103
1826313,315,103
1826330,283,103
1826341,324,103
1826348,302,103
1826362,303,103
1826373,330,103
1826380,294,103
1826393,325,103
1826398,321,103
1826398,300,103
1826422,334,103
1826431,303,103
1826444,318,103
1826455,330,103
1826464,301,103
1826475,338,103
1826481,318,103
1826495,317,103
1826498,344,103
1826514,311,103
1826526,340,103
1826536,336,103
1826546,318,103
1826556,356,103
1826564,325,103
1826578,342,103
1826588,353,103
1826598,322,103
1826598,369,103
1826614,359,103
1826629,349,103
1826639,373,103
1826647,333,103
1826660,355,103
1826665,350,103
1826681,332,103
1826691,369,103
1826697,338,103
1826711,350,103
1826721,362,103
1826731,320,103
1826742,423,103
1826748,648,103
1826748,659,103
1826764,598,103
1826781,226,103
1826792,340,103
1826803,371,103
1826813,344,103
1826824,378,103
1826831,349,103
1826845,360,103
1826855,373,103
1826863,338,103
1826875,375,103
1826881,360,103
1826896,355,103
1826907,390,103
1826915,362,103
1826922,397,103
1826931,401,103
1826946,384,103
1826957,426,103
1826964,399,103
1826978,408,103
1826989,427,103
1826997,400,103
1827009,444,103
1827019,442,103
1827023,448,103
1827040,490,103
1827047,462,103
1827060,482,103
1827070,465,103
1827080,406,103
1827091,406,103
1827097,345,103
1827111,330,103
1827119,337,103
1827130,296,103
1827142,334,103
1827152,323,103
1827163,315,103
1827173,346,103
1827181,309,103
1827194,330,103
1827204,326,103
1827213,296,103
1827224,331,103
1827230,300,103
1827245,306,103
1827255,328,103
1827265,297,103
1827275,333,103
1827282,321,103
1827296,312,103
1827306,343,103
1827314,309,103
1827327,333,103
1827337,332,103
1827347,301,103
1827358,335,103
1827364,301,103
1827364,299,103
1827389,314,103
1827397,275,103
1827397,304,103
1827419,292,103
1827429,278,103
1827439,312,103
1827447,282,103
1827460,306,103
1827465,314,103
1827480,291,103
1827482,328,103
1827497,299,103
1827512,303,103
1827522,321,103
1827530,283,103
1827530,313,103
1827547,302,103
1827563,287,103
1827573,319,103
1827581,284,103
1827594,308,103
1827604,317,103
1827614,291,103
1827623,331,103
1827630,303,103
1827646,304,103
1827648,325,103
1827664,288,103
1827677,318,103
1827681,309,103
1827697,296,103
1827707,331,103
1827714,299,103
1827728,320,103
1827738,329,103
1827747,300,103
1827758,336,103
1827765,310,103
1827778,319,103
1827781,354,103
1827797,309,103
1827810,337,103
1827814,326,103
1827830,303,103
1827840,338,103
1827847,302,103
1827861,318,103
1827871,326,103
1827880,295,103
1827892,326,103
1827902,298,103
1827912,414,105
1827919,658,105
1827932,658,105
1827943,393,105
1827948,228,105
1827963,299,105
1827973,336,105
1827981,293,105
1827994,307,105
1828005,317,105
1828013,285,105
1828024,321,105
1828030,298,105
1828045,299,105
1828048,330,105
1828066,301,105
1828076,337,105
1828081,338,105
1828097,324,105
1828098,359,105
1828114,329,105
1828124,350,105
1828132,365,105
1828148,337,105
1828159,380,105
1828164,368,105
1828179,381,105
1828189,424,105
1828197,403,105
1828209,440,105
1828220,440,105
1828230,413,105
1828241,427,105
1828248,361,105
1828262,340,105
1828271,326,105
1828282,275,105
1828282,302,105
1828297,281,105
1828313,279,105
1828323,311,105
1828331,276,105
1828331,303,105
1828348,298,105
1828364,275,105
1828374,311,105
1828381,280,105
1828394,291,105
1828404,307,105
1828414,274,105
1828425,312,105
1828436,295,105
1828446,290,105
1828456,318,105
1828466,282,105
1828466,308,105
1828487,305,105
1828497,282,105
1828507,318,105
1828514,286,105
1828528,297,105
1828539,314,105
1828547,281,105
1828558,315,105
1828564,298,105
1828569,290,105
1828590,321,105
1828597,286,105
1828610,314,105
1828620,315,105
1828631,293,105
1828640,330,105
1828647,302,105
1828662,311,105
1828672,328,105
1828681,293,105
1828692,328,105
1828703,311,105
1828713,301,105
1828723,333,105
1828730,298,105
1828744,324,105
1828748,324,105
1828764,301,105
1828775,340,105
1828781,312,105
1828794,321,105
1828805,340,105
1828814,305,105
1828826,338,105
1828832,323,105
1828847,310,105
1828857,341,105
1828867,306,105
1828877,331,105
1828880,334,105
1828897,309,105
1828907,348,105
1828918,322,105
1828929,331,105
1828938,352,105
1828947,318,105
1828959,350,105
1828964,334,105
1828980,322,105
1828989,352,105
1828997,318,105
1829010,339,105
1829021,342,105
1829031,320,105
1829041,374,105
1829048,345,105
1829048,343,105
1829065,362,105
1829082,319,105
1829092,348,105
1829103,332,105
1829113,318,105
1829124,351,105
1829131,313,105
1829144,335,105
1829154,331,105
1829164,345,105
1829175,592,100
1829181,659,100
1829195,620,100
1829206,260,100
1829215,272,100
1829227,343,100
1829236,315,100
1829246,296,100
1829257,331,100
1829264,297,100
1829277,318,100
1829288,326,100
1829297,296,100
1829308,337,100
1829314,316,100
1829329,324,100
1829339,350,100
1829348,318,100
1829348,353,100
1829365,345,100
1829381,336,100
1829381,375,100
1829398,345,100
1829398,370,100
1829421,384,100
1829430,365,100
1829442,415,100
1829448,406,100
1829448,416,100
1829464,446,100
1829481,407,100
1829493,427,100
1829498,391,100
1829514,342,100
1829523,349,100
1829531,290,100
1829544,293,100
1829555,294,100
1829564,262,100
1829576,300,100
1829581,276,100
1829596,277,100
1829597,303,100
1829614,267,100
1829625,298,100
1829631,288,100
1829647,266,100
1829657,298,100
1829665,264,100
1829678,283,100
1829687,297,100
1829698,271,100
1829708,316,100
1829714,298,100
1829729,300,100
1829739,324,100
1829747,282,100
1829747,309,100
1829770,296,100
1829781,275,100
1829791,309,100
1829797,278,100
1829812,297,100
1829819,311,100
1829831,282,100
1829842,319,100
1829847,297,100
1829862,294,100
1829872,321,100
1829881,283,100
1829894,310,100
1829903,304,100
1829913,284,100
1829923,321,100
1829931,291,100
1829931,305,100
1829955,320,100
1829964,288,100
1829975,322,100
1829986,301,100
1829996,296,100
1830006,322,100
1830014,287,100
1830025,313,100
1830037,311,100
1830047,291,100
1830047,329,100
1830064,298,100
1830078,314,100
1830088,329,100
1830098,297,100
1830109,333,100
1830119,309,100
1830130,302,100
1830140,329,100
1830147,291,100
1830160,321,100
1830166,316,100
1830180,297,100
1830192,336,100
1830197,306,100
1830211,324,100
1830221,338,100
1830231,308,100
1830243,342,100
1830253,322,100
1830263,326,100
1830273,353,100
1830280,309,100
1830294,335,100
1830304,326,100
1830314,300,100
1830325,341,100
1830331,309,100
1830345,319,100
1830355,331,100
1830364,295,100
1830364,314,100
1830386,345,100
1830397,571,98
1830406,659,98
1830415,550,98
1830427,205,98
1830431,291,98
1830448,300,98
1830458,331,98
1830464,297,98
1830478,303,98
1830480,319,98
1830498,287,98
1830498,323,98
1830520,310,98
1830530,309,98
1830540,345,98
1830547,318,98
1830560,348,98
1830570,356,98
1830581,336,98
1830592,374,98
1830598,351,98
1830612,364,98
1830622,391,98
1830630,366,98
1830642,410,98
1830652,403,98
1830664,406,98
1830673,453,98
1830680,430,98
1830694,462,98
1830705,463,98
1830714,424,98
1830725,431,98
1830731,367,98
1830745,346,98
1830748,347,98
1830764,305,98
1830777,338,98
1830787,331,98
1830796,325,98
1830807,363,98
1830814,331,98
1830828,352,98
1830838,354,98
1830847,327,98
1830858,365,98
1830868,340,98
1830879,348,98
1830889,372,98
1830898,341,98
1830898,376,98
1830920,364,98
1830930,353,98
1830941,385,98
1830948,352,98
1830961,375,98
1830970,381,98
1830981,354,98
1830992,389,98
1830997,359,98
1831012,359,98
1831022,372,98
1831030,331,98
1831043,360,98
1831048,345,98
1831063,330,98
1831074,363,98
1831081,331,98
1831095,354,98
1831097,364,98
1831113,340,98
1831125,378,98
1831130,350,98
1831146,347,98
1831157,365,98
1831163,327,98
1831176,355,98
1831187,345,98
1831197,334,98
1831207,366,98
1831217,332,98
1831228,365,98
1831231,376,98
1831247,336,98
1831258,369,98
1831264,335,98
1831279,330,98
1831289,350,98
1831297,312,98
1831311,346,98
1831320,337,98
1831330,318,98
1831331,351,98
1831348,304,98
1831348,400,98
1831372,654,103
1831381,659,103
1831392,499,103
1831398,202,103
1831413,297,103
1831423,342,103
1831432,298,103
1831432,327,103
1831447,317,103
1831464,299,103
1831475,331,103
1831480,295,103
1831480,310,103
1831498,323,103
1831514,298,103
1831526,341,103
1831530,323,103
1831546,330,103
1831556,361,103
1831563,328,103
1831577,359,103
1831587,356,103
1831597,342,103
1831607,383,103
1831618,357,103
1831626,386,103
1831638,411,103
1831647,395,103
1831659,442,103
1831664,425,103
1831680,417,103
1831689,419,103
1831698,346,103
1831710,340,103
1831717,306,103
1831730,265,103
1831741,289,103
1831747,252,103
1831761,267,103
1831771,280,103
1831780,254,103
1831792,293,103
1831802,272,103
1831813,270,103
1831814,299,103
1831831,263,103
1831844,290,103
1831848,285,103
1831864,265,103
1831874,301,103
1831880,268,103
1831896,279,103
1831906,291,103
1831914,258,103
1831914,295,103
1831936,276,103
1831947,273,103
1831948,303,103
1831963,268,103
1831978,298,103
1831981,293,103
1831997,270,103
1832009,305,103
1832014,269,103
1832028,283,103
1832039,295,103
1832047,262,103
1832059,300,103
1832069,284,103
1832081,281,103
1832090,314,103
1832098,281,103
1832098,308,103
1832121,304,103
1832132,281,103
1832142,318,103
1832147,286,103
1832162,297,103
1832173,312,103
1832180,278,103
1832193,316,103
1832203,301,103
1832214,298,103
1832217,327,103
1832231,292,103
1832244,320,103
1832255,320,103
1832265,296,103
1832271,334,103
1832280,301,103
1832296,311,103
1832306,330,103
1832314,295,103
1832326,331,103
1832331,316,103
1832347,310,103
1832348,342,103
1832365,309,103
1832374,334,103
1832388,334,103
1832398,320,103
1832398,367,103
1832415,325,103
1832427,334,103
1832440,346,103
1832447,304,103
1832459,338,103
1832470,320,103
1832480,311,103
1832482,342,103
1832497,308,103
1832497,331,103
1832521,330,103
1832531,437,103
1832542,658,103
1832548,658,103
1832548,365,103
1832573,257,103
1832580,303,103
1832593,333,103
1832598,308,103
1832614,298,103
1832624,332,103
1832631,296,103
1832644,318,103
1832655,321,103
1832664,295,103
1832675,337,103
1832685,313,103
1832696,328,103
1832707,352,103
1832715,324,103
1832715,359,103
1832731,350,103
1832747,339,103
1832747,374,103
1832764,344,103
1832773,372,103
1832788,388,103
1832797,376,103
1832809,438,103
1832814,427,103
1832830,436,103
1832840,460,103
1832847,418,103
1832847,427,103
1832866,379,103
1832873,334,103
1832881,343,103
1832897,291,103
1832897,304,103
1832922,307,103
1832930,282,103
1832943,319,103
1832948,294,103
1832963,295,103
1832972,316,103
1832981,278,103
1832994,307,103
1833004,293,103
1833014,279,103
1833025,312,103
1833030,276,103
1833045,300,103
1833055,308,103
1833063,282,103
1833076,317,103
1833080,291,103
1833097,292,103
1833106,315,103
1833115,278,103
1833115,311,103
1833138,301,103
1833147,286,103
1833158,318,103
1833166,284,103
1833178,300,103
1833181,307,103
1833198,278,103
1833198,316,103
1833216,291,103
1833230,296,103
1833232,324,103
1833247,287,103
1833261,316,103
1833271,304,103
1833281,286,103
1833281,322,103
1833297,286,103
1833312,303,103
1833316,311,103
1833331,282,103
1833331,321,103
1833347,298,103
1833363,302,103
1833374,326,103
1833381,290,103
1833394,321,103
1833404,314,103
1833414,295,103
1833424,330,103
1833431,296,103
1833431,314,103
1833456,323,103
1833464,294,103
1833473,333,103
1833480,310,103
1833497,308,103
1833507,332,103
1833515,296,103
1833527,326,103
1833538,317,103
1833547,298,103
1833558,335,103
1833568,302,103
1833579,321,103
1833590,333,103
1833597,302,103
1833610,348,103
1833620,338,103
1833631,325,103
1833640,349,103
1833648,310,103
1833648,330,103
1833671,322,103
1833680,301,103
1833692,336,103
1833697,299,103
1833712,311,103
1833722,319,103
1833731,289,103
1833731,462,103
1833753,658,103
1833764,658,103
1833774,361,103
1833781,207,103
1833794,320,103
1833805,313,103
1833814,286,103
1833825,321,103
1833831,290,103
1833845,305,103
1833856,318,103
1833864,286,103
1833877,329,103
1833881,318,103
1833897,327,103
1833908,367,103
1833914,344,103
1833927,384,103
1833938,392,103
1833947,379,103
1833959,419,103
1833969,391,103
1833979,404,103
1833989,417,103
1833997,386,103
1834010,429,103
1834020,420,103
1834031,424,103
1834041,453,103
1834047,415,103
1834061,431,103
1834071,402,103
1834080,343,103
1834092,344,103
1834098,288,103
1834098,283,103
1834123,294,103
1834131,261,103
1834131,304,103
1834147,289,103
1834164,285,103
1834174,310,103
1834180,268,103
1834195,288,103
1834206,279,103
1834214,254,103
1834225,292,103
1834231,267,103
1834246,283,103
1834256,305,103
1834264,281,103
1834277,321,103
1834287,305,103
1834297,304,103
1834307,335,103
1834315,300,103
1834315,327,103
1834332,328,103
1834347,302,103
1834360,341,103
1834365,312,103
1834373,319,103
1834381,336,103
1834398,298,103
1834410,334,103
1834414,318,103
1834431,307,103
1834431,338,103
1834447,305,103
1834461,334,103
1834472,342,103
1834480,323,103
1834493,363,103
1834503,338,103
1834514,348,103
1834523,368,103
1834531,336,103
1834531,372,103
1834548,355,103
1834564,346,103
1834575,380,103
1834581,349,103
1834595,373,103
1834605,377,103
1834615,366,103
1834626,414,110
1834631,378,110
1834647,382,110
1834657,395,110
1834664,354,110
1834677,385,110
1834687,368,110
1834697,357,110
1834708,388,110
1834715,351,110
1834715,374,110
1834739,366,110
1834748,419,110
1834748,658,110
1834765,660,110
1834774,585,110
1834791,275,110
1834798,317,110
1834810,377,110
1834820,354,110
1834831,341,110
1834841,370,110
1834851,333,110
1834862,354,110
1834873,357,110
1834881,331,110
1834881,373,110
1834897,348,110
1834913,356,110
1834924,383,110
1834931,356,110
1834944,393,110
1834955,381,110
1834964,370,110
1834969,405,109
1834981,374,109
1834995,398,109
1835000,410,109
1835014,391,109
1835027,440,109
1835037,427,109
1835046,440,109
1835056,469,109
1835063,428,109
1835072,432,109
1835088,383,109
1835097,329,109
1835108,332,109
1835114,276,109
1835129,283,109
1835139,289,109
1835147,260,109
1835160,302,109
1835170,281,109
1835180,287,109
1835191,311,109
1835197,274,109
1835197,303,109
1835214,292,109
1835231,273,109
1835242,308,109
1835247,272,109
1835263,290,109
1835272,298,109
1835281,265,109
1835293,302,109
1835304,277,109
1835314,279,109
1835324,306,109
1835331,272,109
1835331,303,109
1835355,296,109
1835364,279,109
1835375,309,109
1835381,272,109
1835396,288,109
1835406,293,109
1835414,261,109
1835427,298,109
1835431,274,109
1835447,274,109
1835458,301,109
1835465,267,109
1835478,298,109
1835488,289,109
1835498,272,109
1835509,304,109
1835515,272,109
1835520,290,109
1835532,301,109
1835548,271,109
1835561,310,109
1835571,288,109
1835580,286,109
1835580,312,109
1835598,276,109
1835611,304,109
1835622,299,109
1835632,280,109
1835643,319,109
1835649,286,109
1835662,304,109
1835673,318,109
1835680,287,109
1835694,325,109
1835697,303,109
1835714,301,109
1835723,328,109
1835732,292,109
1835732,322,109
1835748,320,109
1835765,302,109
1835774,341,109
1835782,310,109
1835796,325,109
1835807,344,109
1835814,325,109
1835827,354,109
1835837,330,109
1835847,323,109
1835858,345,109
1835868,307,109
1835868,335,109
1835882,328,109
1835898,308,109
1835898,345,109
1835914,311,109
1835930,314,109
1835939,407,108
1835947,614,108
1835960,659,108
1835970,531,108
1835981,217,108
1835982,331,108
1835998,306,108
1836012,319,108
1836014,314,108
1836032,293,108
1836033,330,108
1836047,299,108
1836063,312,108
1836073,328,108
1836081,299,108
1836094,341,108
1836104,327,108
1836114,326,108
1836125,360,108
1836132,326,108
1836145,355,108
1836156,356,108
1836164,337,108
1836176,378,108
1836186,353,108
1836197,373,108
1836207,406,108
1836215,386,108
1836228,438,108
1836237,431,108
1836247,432,108
1836247,462,108
1836267,409,108
1836278,403,108
1836289,367,108
1836297,312,108
1836309,326,108
1836320,282,108
1836330,284,108
1836340,300,108
1836347,270,108
1836361,309,108
1836372,293,108
1836381,290,108
1836391,321,108
1836397,285,108
1836411,309,108
1836422,304,108
1836433,276,108
1836444,312,108
1836453,282,108
1836463,296,108
1836473,317,108
1836481,284,108
1836481,321,108
1836499,302,108
1836514,293,108
1836525,323,108
1836533,284,108
1836546,309,108
1836556,310,108
1836564,286,108
1836576,326,108
1836581,297,108
1836597,306,108
1836607,326,108
1836614,290,108
1836628,325,108
1836638,311,108
1836648,301,108
1836659,334,108
1836665,297,108
1836679,322,108
1836689,325,108
1836697,301,108
1836710,339,108
1836720,308,108
1836730,315,108
1836740,334,108
1836747,299,108
1836761,333,108
1836764,321,108
1836781,312,108
1836792,345,108
1836797,309,108
1836812,332,108
1836816,336,108
1836833,307,108
1836833,347,108
1836848,317,108
1836864,323,108
1836874,344,108
1836880,307,108
1836880,342,108
1836898,329,108
1836915,317,108
1836925,352,108
1836933,315,108
1836933,337,108
1836947,340,108
1836964,314,108
1836977,352,108
1836980,325,108
1836997,330,108
1837008,351,108
1837014,316,108
1837022,346,108
1837035,332,108
1837048,320,108
1837059,354,108
1837064,319,108
1837079,342,108
1837082,352,108
1837097,338,108
1837110,368,108
1837119,336,108
1837130,340,108
1837140,353,108
1837147,313,108
1837147,342,108
1837164,329,108
1837181,313,108
1837193,342,108
1837197,304,108
1837213,314,108
1837223,383,108
1837233,581,102
1837244,659,102
1837248,552,102
1837264,208,102
1837275,310,102
1837281,293,102
1837295,308,102
1837297,295,102
1837313,279,102
1837326,313,102
1837333,278,102
1837347,299,102
1837356,305,102
1837364,277,102
1837377,323,102
1837387,303,102
1837397,311,102
1837408,340,102
1837414,305,102
1837428,341,102
1837438,332,102
1837448,320,102
1837459,359,102
1837465,332,102
1837480,361,102
1837490,381,102
1837497,366,102
1837510,420,102
1837515,407,102
1837531,414,102
1837533,435,102
1837548,385,102
1837548,388,102
1837573,345,102
1837582,297,102
1837582,310,102
1837598,262,102
1837613,276,102
1837623,286,102
1837633,261,102
1837644,301,102
1837654,281,102
1837663,282,102
1837674,306,102
1837681,272,102
1837695,305,102
1837698,294,102
1837715,276,102
1837727,311,102
1837733,277,102
1837747,293,102
1837757,300,102
1837764,273,102
1837777,315,102
1837781,293,102
1837797,293,102
1837808,317,102
1837818,283,102
1837828,315,102
1837833,305,102
1837847,285,102
1837860,319,102
1837870,287,102
1837879,306,102
1837890,315,102
1837897,284,102
1837911,326,102
1837921,303,102
1837931,302,102
1837933,330,102
1837947,290,102
1837962,322,102
1837972,314,102
1837983,298,102
1837992,336,102
1838004,303,102
1838014,320,102
1838024,330,102
1838033,301,102
1838046,338,102
1838054,314,102
1838064,315,102
1838074,343,102
1838081,310,102
1838096,338,102
1838106,333,102
1838114,315,102
1838126,352,102
1838137,318,102
1838147,335,102
1838157,350,102
1838165,321,102
1838178,362,102
1838187,344,102
1838197,342,102
1838197,373,102
1838215,350,102
1838224,382,102
1838233,367,102
1838247,345,102
1838247,373,102
1838265,332,102
1838281,344,102
1838291,357,102
1838297,324,102
1838312,364,102
1838321,345,102
1838330,335,102
1838341,377,102
1838347,510,90
1838363,659,90
1838373,659,90
1838381,334,90
1838381,294,90
1838404,340,90
1838413,354,90
1838424,362,90
1838433,332,90
1838445,369,90
1838455,349,90
1838465,345,90
1838474,372,90
1838486,339,90
1838496,373,90
1838506,372,90
1838515,361,90
1838522,408,90
1838533,382,90
1838547,401,90
1838558,421,90
1838564,393,90
1838578,432,90
1838588,411,90
1838597,409,90
1838610,443,90
1838614,418,90
1838630,461,90
1838640,472,90
1838647,462,90
1838660,503,98
1838667,461,98
1838681,443,98
1838681,418,98
1838697,346,98
1838711,351,98
1838722,312,98
1838732,299,98
1838742,330,98
1838747,298,98
1838763,329,98
1838773,329,98
1838780,308,98
1838794,342,98
1838797,303,98
1838814,310,98
1838825,322,98
1838834,286,98
1838845,323,98
1838847,307,98
1838864,306,98
1838875,337,98
1838886,297,98
1838897,324,98
1838898,323,98
1838914,303,98
1838927,342,98
1838934,312,98
1838947,324,98
1838958,337,98
1838963,301,98
1838979,331,98
1838989,309,98
1838998,295,98
1838998,318,98
1839015,278,98
1839029,303,98
1839040,303,98
1839047,280,98
1839060,320,98
1839071,292,98
1839081,303,98
1839091,319,98
1839102,282,98
1839111,314,98
1839122,294,98
1839131,285,98
1839142,317,98
1839153,282,98
1839163,312,98
1839174,316,98
1839181,293,98
1839194,331,98
1839205,300,98
1839214,307,98
1839225,322,98
1839234,286,98
1839245,321,98
1839256,301,98
1839265,293,98
1839277,329,98
1839287,295,98
1839297,324,98
1839307,325,98
1839314,301,98
1839314,352,98
1839338,323,98
1839348,322,98
1839359,338,98
1839364,296,98
1839379,326,98
1839389,308,98
1839398,298,98
1839398,330,98
1839420,293,98
1839430,317,98
1839440,308,98
1839448,301,98
1839461,514,90
1839471,658,90
1839481,645,90
1839492,262,90
1839498,228,90
1839512,324,90
1839523,299,90
1839531,284,90
1839542,317,90
1839553,281,90
1839563,306,90
1839574,308,90
1839580,282,90
1839595,323,90
1839605,298,90
1839614,312,90
1839625,338,90
1839634,308,90
1839646,347,90
1839657,335,90
1839664,329,90
1839677,364,90
1839687,331,90
1839697,362,90
1839708,374,90
1839714,359,90
1839728,410,90
1839738,396,90
1839748,414,90
1839748,441,90
1839765,408,99
1839779,433,99
1839789,392,99
1839797,347,99
1839811,349,99
1839821,287,99
1839830,293,99
1839841,290,99
1839848,263,99
1839848,302,99
1839871,276,99
1839881,282,99
1839892,303,99
1839902,271,99
1839913,307,99
1839923,297,99
1839931,286,99
1839944,320,99
1839954,283,99
1839964,303,99
1839974,308,99
1839981,279,99
1839986,316,99
1840005,286,99
1840014,292,99
1840025,318,99
1840035,284,99
1840046,320,99
1840056,308,99
1840064,294,99
1840077,325,99
1840081,288,99
1840098,309,99
1840108,315,99
1840114,285,99
1840128,323,99
1840139,298,99
1840148,306,99
1840159,331,99
1840169,296,99
1840180,331,99
1840190,319,99
1840198,305,99
1840198,337,99
1840214,300,99
1840230,320,99
1840242,325,99
1840247,296,99
1840261,335,99
1840272,309,99
1840280,312,99
1840292,337,99
1840303,299,99
1840313,332,99
1840319,323,99
1840331,310,99
1840336,346,99
1840354,311,99
1840364,331,99
1840373,339,99
1840381,310,99
1840381,347,99
1840406,319,99
1840414,321,99
1840423,346,99
1840436,310,99
1840446,343,99
1840448,334,99
1840464,321,99
1840478,358,99
1840482,325,99
1840498,341,99
1840508,351,99
1840519,334,99
1840529,368,99
1840536,333,99
1840547,334,99
1840560,351,99
1840565,310,99
1840581,341,99
1840590,334,99
1840598,318,99
1840598,354,99
1840622,317,99
1840630,323,99
1840642,368,99
1840648,540,90
1840662,659,90
1840672,632,90
1840681,224,90
1840693,301,90
1840698,305,90
1840714,324,90
1840723,314,90
1840730,298,90
1840744,336,90
1840755,302,90
1840763,317,90
1840775,322,90
1840785,289,90
1840796,331,90
1840806,312,90
1840814,318,90
1840826,349,90
1840836,321,90
1840847,358,90
1840857,354,90
1840864,338,90
1840878,377,90
1840888,345,90
1840897,367,90
1840909,385,90
1840914,367,90
1840929,423,90
1840939,414,90
1840947,422,90
1840960,452,94
1840965,400,94
1840980,402,94
1840991,357,94
1840998,302,94
1841011,313,94
1841021,263,94
1841031,270,94
1841042,284,94
1841047,256,94
1841062,299,94
1841072,282,94
1841082,279,94
1841093,305,94
1841098,266,94
1841113,289,94
1841124,279,94
1841131,258,94
1841145,292,94
1841149,260,94
1841164,277,94
1841174,295,94
1841181,265,94
1841195,306,94
1841206,285,94
1841213,278,94
1841227,304,94
1841237,263,94
1841247,292,94
1841248,286,94
1841264,267,94
1841277,302,94
1841288,272,94
1841297,287,94
1841308,303,94
1841315,270,94
1841321,309,94
1841340,290,94
1841348,286,94
1841348,313,94
1841370,275,94
1841381,304,94
1841381,301,94
1841397,283,94
1841412,321,94
1841422,288,94
1841431,302,94
1841442,317,94
1841448,282,94
1841448,320,94
1841473,300,94
1841480,294,94
1841493,325,94
1841504,287,94
1841514,316,94
1841525,314,94
1841531,292,94
1841545,330,94
1841548,300,94
1841565,316,94
1841576,333,94
1841581,305,94
1841597,340,94
1841606,322,94
1841615,332,94
1841622,364,94
1841637,319,94
1841648,344,94
1841657,333,94
1841663,308,94
1841679,342,94
1841689,309,94
1841697,320,94
1841709,336,94
1841718,304,94
1841718,332,94
1841740,348,94
1841748,563,88
1841761,659,88
1841770,611,88
1841781,223,88
1841791,285,88
1841798,304,88
1841812,332,88
1841822,300,88
1841831,314,88
1841837,330,88
1841847,295,88
1841863,332,88
1841874,319,88
1841881,321,88
1841894,357,88
1841898,328,88
1841914,360,88
1841925,367,88
1841931,353,88
1841945,394,88
1841957,369,88
1841964,386,88
1841976,410,88
1841986,382,88
1841997,425,88
1842007,420,88
1842014,429,88
1842028,476,88
1842038,454,88
1842047,491,88
1842058,493,98
1842065,453,98
1842065,460,98
1842089,393,98
1842097,371,98
1842097,363,98
1842120,319,98
1842130,350,98
1842140,339,98
1842147,336,98
1842160,369,98
1842171,336,98
1842181,363,98
1842192,362,98
1842198,336,98
1842198,367,98
1842223,334,98
1842231,342,98
1842243,358,98
1842248,324,98
1842263,363,98
1842274,351,98
1842280,347,98
1842294,382,98
1842304,350,98
1842314,379,98
1842326,381,98
1842331,354,98
1842346,388,98
1842356,353,98
1842365,354,98
1842365,368,98
1842387,327,98
1842397,354,98
1842408,338,98
1842414,329,98
1842428,363,98
1842438,326,98
1842447,351,98
1842459,352,98
1842468,327,98
1842479,363,98
1842489,335,98
1842498,338,98
1842510,353,98
1842520,320,98
1842530,352,98
1842541,340,98
1842547,343,98
1842562,386,98
1842572,339,98
1842581,357,98
1842592,349,98
1842598,313,98
1842613,345,98
1842623,313,98
1842631,316,98
1842638,337,98
1842653,299,98
1842663,329,98
1842674,306,98
1842681,395,98
1842681,658,93
1842706,659,93
1842714,420,93
1842725,213,93
1842731,279,93
1842738,326,93
1842756,289,93
1842764,295,93
1842777,315,93
1842787,279,93
1842797,314,93
1842807,298,93
1842818,285,93
1842828,319,93
1842839,285,93
1842847,310,93
1842859,322,93
1842864,303,93
1842880,347,93
1842889,323,93
1842900,333,93
1842910,358,93
1842914,330,93
1842930,368,93
1842941,363,93
1842947,362,93
1842962,411,93
1842972,389,93
1842981,423,93
1842992,434,104
1842998,399,104
1843013,410,104
1843023,346,104
1843031,316,104
1843039,310,104
1843048,254,104
1843064,278,104
1843074,264,104
1843081,250,104
1843095,289,104
1843097,256,104
1843115,280,104
1843125,292,104
1843136,265,104
1843146,305,104
1843157,278,104
1843164,280,104
1843177,302,104
1843187,268,104
1843198,298,104
1843208,285,104
1843217,273,104
1843228,307,104
1843239,274,104
1843247,298,104
1843259,307,104
1843269,279,104
1843280,319,104
1843291,295,104
1843297,298,104
1843311,320,104
1843315,281,104
1843330,314,104
1843341,300,104
1843347,282,104
1843362,315,104
1843372,281,104
1843380,300,104
1843393,310,104
1843403,282,104
1843413,322,104
1843423,300,104
1843431,303,104
1843444,327,104
1843454,291,104
1843464,322,104
1843474,314,104
1843481,298,104
1843495,331,104
1843506,294,104
1843514,315,104
1843526,326,104
1843537,295,104
1843547,333,104
1843557,311,104
1843564,311,104
1843577,335,104
1843581,297,104
1843598,328,104
1843598,319,104
1843618,303,104
1843629,339,104
1843639,305,104
1843647,325,104
1843659,335,104
1843664,303,104
1843680,340,104
1843691,315,104
1843698,315,104
1843711,340,104
1843715,300,104
1843731,333,104
1843742,324,104
1843747,308,104
1843763,345,104
1843772,310,104
1843781,328,104
1843793,338,104
1843798,307,104
1843813,354,104
1843824,340,104
1843831,328,104
1843845,354,104
1843855,311,104
1843864,337,104
1843864,329,104
1843880,309,104
1843896,345,104
1843897,309,104
1843914,327,104
1843927,334,104
1843937,296,104
1843947,447,107
1843958,657,107
1843964,658,107
1843978,434,107
1843989,212,107
1843998,328,107
1844008,320,107
1844019,290,107
1844029,325,107
1844040,292,107
1844047,308,107
1844060,322,107
1844065,288,107
1844081,327,107
1844090,309,107
1844098,311,107
1844111,341,107
1844121,311,107
1844131,345,107
1844139,343,107
1844148,328,107
1844162,367,107
1844173,338,107
1844181,359,107
1844194,380,107
1844204,357,107
1844214,411,107
1844224,403,107
1844231,413,107
1844240,450,107
1844255,414,107
1844264,437,107
1844274,413,107
1844281,360,107
1844281,366,107
1844306,311,107
1844315,308,107
1844327,312,107
1844337,275,107
1844347,311,107
1844358,288,107
1844364,285,107
1844370,313,107
1844389,277,107
1844397,306,107
1844409,303,107
1844419,281,107
1844430,317,107
1844439,285,107
1844447,297,107
1844460,310,107
1844470,277,107
1844481,315,107
1844492,293,107
1844497,288,107
1844511,317,107
1844521,278,107
1844531,306,107
1844542,301,107
1844553,280,107
1844563,315,107
1844573,283,107
1844580,295,107
1844594,311,107
1844598,278,107
1844614,318,107
1844625,298,107
1844630,293,107
1844641,323,107
1844656,282,107
1844664,307,107
1844676,304,107
1844686,281,107
1844696,318,107
1844698,287,107
1844714,298,107
1844728,311,107
1844731,271,107
1844747,304,107
1844757,282,107
1844764,277,107
1844778,314,107
1844790,282,107
1844797,313,107
1844809,316,107
1844820,294,107
1844830,331,107
1844839,297,107
1844848,305,107
1844861,317,107
1844866,279,107
1844881,315,107
1844892,300,107
1844898,296,107
1844912,331,107
1844918,297,107
1844931,327,107
1844942,326,107
1844948,299,107
1844948,339,107
1844974,306,107
1844980,314,107
1844994,333,107
1844997,302,107
1845014,340,107
1845025,323,107
1845031,318,107
1845046,348,107
1845055,307,107
1845064,341,107
1845076,349,107
1845087,315,107
1845096,350,107
1845107,312,107
1845115,317,107
1845128,335,107
1845138,302,107
1845148,337,107
1845148,322,107
1845164,315,107
1845179,341,107
1845189,298,107
1845197,457,104
1845210,659,104
1845220,658,104
1845230,360,104
1845241,208,104
1845247,304,104
1845262,324,104
1845264,285,104
1845281,321,104
1845292,311,104
1845298,302,104
1845312,333,104
1845323,303,104
1845331,329,104
1845343,333,104
1845348,311,104
1845348,354,104
1845374,329,104
1845381,341,104
1845381,366,104
1845405,339,104
1845414,384,104
1845425,377,104
1845431,374,104
1845446,410,104
1845457,379,104
1845465,411,104
1845477,423,104
1845481,410,104
1845497,458,104
1845507,434,104
1845514,438,104
1845519,438,104
1845539,367,104
1845547,363,104
1845559,323,104
1845564,291,104
1845579,314,104
1845589,274,104
1845597,298,104
1845609,305,104
1845619,282,104
1845631,322,104
1845640,297,104
1845647,306,104
1845662,324,104
1845672,290,104
1845681,325,104
1845692,311,104
1845703,299,104
1845713,338,104
1845723,307,104
1845730,332,104
1845743,341,104
1845754,321,104
1845764,365,104
1845774,341,104
1845780,349,104
1845796,369,104
1845805,330,104
1845815,357,104
1845815,342,104
1845831,322,104
1845846,354,104
1845856,320,104
1845865,344,104
1845877,355,104
1845881,331,104
1845898,373,104
1845898,346,104
1845914,354,104
1845920,378,104
1845939,344,104
1845948,378,104
1845959,367,104
1845964,353,104
1845980,386,104
1845981,350,104
1845997,372,104
1846010,376,104
1846021,348,104
1846030,388,104
1846030,362,104
1846048,368,104
1846048,394,104
1846065,359,104
1846082,400,104
1846082,403,110
1846098,388,110
1846113,414,110
1846124,374,110
1846131,381,110
1846142,384,110
1846155,352,110
1846164,387,110
1846174,359,110
1846181,360,110
1846195,381,110
1846205,336,110
1846216,378,110
1846226,534,110
1846229,659,110
1846246,659,110
1846257,340,110
1846267,272,110
1846278,354,110
1846284,320,110
1846298,351,110
1846302,326,110
1846318,326,110
1846320,345,110
1846336,304,110
1846349,335,110
1846360,324,110
1846368,310,110
1846380,349,110
1846390,319,110
1846401,344,110
1846411,361,110
1846418,336,110
1846431,377,110
1846435,354,110
1846451,359,110
1846462,389,110
1846468,356,110
1846483,395,110
1846493,395,110
1846502,391,110
1846513,438,108
1846524,412,108
1846534,432,108
1846544,425,108
1846551,361,108
1846565,357,108
1846575,294,108
1846584,265,108
