Timestamp,ECGValue,BPM
1744116,334,107
1744132,299,107
1744142,331,107
1744150,302,107
1744162,308,107
1744167,325,107
1744184,291,107
1744194,323,107
1744200,300,107
1744215,330,107
1744220,574,110
1744234,658,110
1744245,574,110
1744250,214,110
1744265,247,110
1744274,323,110
1744283,288,110
1744283,290,110
1744307,312,110
1744316,279,110
1744328,308,110
1744333,294,110
1744348,279,110
1744358,315,110
1744366,285,110
1744379,308,110
1744389,322,110
1744399,302,110
1744409,344,110
1744418,322,110
1744431,330,110
1744440,360,110
1744450,327,110
1744461,361,110
1744467,360,110
1744482,356,110
1744492,404,110
1744501,386,110
1744501,413,110
1744523,430,110
1744532,402,110
1744543,423,110
1744550,367,110
1744564,335,110
1744574,331,110
1744583,274,110
1744594,292,110
1744605,280,110
1744615,265,110
1744625,303,110
1744633,273,110
1744645,294,110
1744650,306,110
1744666,277,110
1744677,313,110
1744683,290,110
1744697,286,110
1744700,310,110
1744717,272,110
1744728,302,110
1744733,296,110
1744748,277,110
1744758,309,110
1744766,277,110
1744779,295,110
1744784,306,110
1744800,276,110
1744810,313,110
1744816,289,110
1744830,286,110
1744841,311,110
1744850,280,110
1744862,308,110
1744866,303,110
1744882,283,110
1744884,319,110
1744900,288,110
1744900,304,110
1744923,314,110
1744933,282,110
1744943,319,110
1744950,300,110
1744964,300,110
1744967,328,110
1744982,291,110
1744995,318,110
1745005,312,110
1745016,291,110
1745025,326,110
1745033,295,110
1745046,310,110
1745049,322,110
1745067,293,110
1745077,330,110
1745083,310,110
1745097,306,110
1745107,333,110
1745117,297,110
1745128,326,110
1745139,320,110
1745149,301,110
1745151,335,110
1745167,304,110
1745180,316,110
1745190,329,110
1745200,298,110
1745210,334,110
1745217,313,110
1745230,308,110
1745233,345,110
1745250,317,110
1745262,343,110
1745272,333,110
1745282,308,110
1745283,334,110
1745300,299,110
1745314,311,110
1745324,325,110
1745333,292,110
1745343,329,110
1745350,310,110
1745364,295,110
1745372,342,110
1745384,480,109
1745396,658,109
1745400,652,109
1745415,222,109
1745426,266,109
1745435,293,109
1745446,292,109
1745457,302,109
1745466,272,109
1745477,310,109
1745484,292,109
1745498,284,109
1745508,310,109
1745516,274,109
1745529,303,109
1745533,303,109
1745549,286,109
1745559,325,109
1745569,299,109
1745569,312,109
1745583,331,109
1745600,302,109
1745601,343,109
1745617,333,109
1745625,335,109
1745633,375,109
1745650,354,109
1745662,396,109
1745666,408,109
1745682,395,109
1745693,434,109
1745700,396,109
1745714,381,109
1745724,364,109
1745733,302,109
1745745,310,109
1745750,277,109
1745750,265,109
1745775,295,109
1745783,263,109
1745795,294,109
1745806,299,109
1745816,280,109
1745824,318,109
1745834,287,109
1745847,297,109
1745853,314,109
1745866,280,109
1745877,313,109
1745883,294,109
1745898,285,109
1745908,318,109
1745916,288,109
1745929,313,109
1745939,314,109
1745949,293,109
1745959,331,109
1745970,300,109
1745981,307,109
1745991,325,109
1746000,288,109
1746011,321,109
1746021,308,109
1746032,298,109
1746033,326,109
1746050,290,109
1746050,313,109
1746072,317,109
1746083,293,109
1746093,329,109
1746101,303,109
1746114,315,109
1746123,333,109
1746133,301,109
1746145,336,109
1746150,321,109
1746150,309,109
1746175,339,109
1746183,303,109
1746196,328,109
1746206,331,109
1746216,305,109
1746227,342,109
1746233,316,109
1746247,327,109
1746257,347,109
1746266,315,109
1746279,348,109
1746283,335,109
1746299,326,109
1746300,357,109
1746316,322,109
1746329,344,109
1746340,358,109
1746350,346,109
1746360,387,109
1746366,358,109
1746381,365,109
1746391,380,109
1746399,344,109
1746411,376,109
1746421,363,109
1746421,350,109
1746442,382,109
1746450,347,109
1746462,360,109
1746468,371,109
1746484,509,108
1746494,659,108
1746500,659,108
1746514,389,108
1746524,304,108
1746533,353,108
1746544,385,108
1746550,365,108
1746550,351,108
1746576,380,108
1746583,344,108
1746597,362,108
1746606,368,108
1746617,347,108
1746627,388,108
1746633,366,108
1746645,376,108
1746650,406,108
1746667,377,108
1746678,410,108
1746683,400,108
1746699,386,108
1746699,418,108
1746716,383,108
1746725,405,108
1746734,416,108
1746750,401,108
1746760,449,108
1746766,439,108
1746781,454,108
1746792,481,108
1746800,439,108
1746812,446,108
1746822,400,108
1746832,354,108
1746843,358,108
1746850,304,108
1746850,313,108
1746869,318,108
1746883,293,108
1746883,333,108
1746899,313,108
1746914,319,108
1746924,342,108
1746933,305,108
1746945,332,108
1746950,316,108
1746966,301,108
1746976,334,108
1746984,301,108
1746996,325,108
1746999,334,108
1747016,305,108
1747028,341,108
1747034,315,108
1747048,319,108
1747058,342,108
1747067,305,108
1747067,334,108
1747089,322,108
1747099,302,108
1747109,329,108
1747116,292,108
1747130,304,108
1747133,308,108
1747149,277,108
1747161,312,108
1747171,288,108
1747182,292,108
1747191,319,108
1747200,288,108
1747200,320,108
1747223,310,108
1747233,295,108
1747234,326,108
1747250,287,108
1747250,303,108
1747273,308,108
1747284,277,108
1747290,312,108
1747300,289,108
1747314,291,108
1747325,317,108
1747333,284,108
1747345,316,108
1747350,310,108
1747366,292,108
1747376,326,108
1747384,294,108
1747384,311,108
1747401,320,108
1747416,292,108
1747425,331,108
1747432,307,108
1747448,309,108
1747451,345,108
1747467,313,108
1747479,334,108
1747483,324,108
1747499,303,108
1747499,333,108
1747518,299,108
1747525,315,108
1747541,324,108
1747550,294,108
1747561,330,108
1747566,298,108
1747582,301,108
1747592,467,109
1747600,658,109
1747600,657,109
1747624,318,109
1747633,214,109
1747634,329,109
1747650,292,109
1747664,299,109
1747674,311,109
1747683,281,109
1747695,317,109
1747700,294,109
1747716,293,109
1747725,319,109
1747733,286,109
1747745,320,109
1747756,319,109
1747765,308,109
1747777,348,109
1747783,319,109
1747798,342,109
1747808,356,109
1747817,331,109
1747828,376,109
1747833,362,109
1747849,368,109
1747851,405,109
1747867,382,109
1747879,426,109
1747890,427,109
1747899,413,109
1747911,443,109
1747917,388,109
1747931,371,109
1747940,352,109
1747950,296,109
1747950,314,109
1747966,282,109
1747981,276,109
1747993,308,109
1748001,277,109
1748001,314,109
1748017,313,109
1748034,299,109
1748044,337,109
1748049,305,109
1748049,316,109
1748074,324,109
1748082,290,109
1748094,325,109
1748100,303,109
1748116,299,109
1748126,327,109
1748133,290,109
1748147,320,109
1748157,317,109
1748166,298,109
1748177,335,109
1748183,300,109
1748198,314,109
1748208,324,109
1748217,291,109
1748229,327,109
1748234,307,109
1748249,302,109
1748259,328,109
1748266,292,109
1748280,322,109
1748291,320,109
1748300,300,109
1748300,337,109
1748316,305,109
1748331,319,109
1748342,332,109
1748350,298,109
1748362,333,109
1748372,310,109
1748383,306,109
1748383,333,109
1748400,297,109
1748413,326,109
1748424,322,109
1748433,302,109
1748434,341,109
1748453,308,109
1748465,321,109
1748475,334,109
1748483,302,109
1748495,337,109
1748501,316,109
1748501,312,109
1748517,340,109
1748534,303,109
1748547,332,109
1748557,330,109
1748567,311,109
1748578,348,109
1748583,315,109
1748599,328,109
1748600,340,109
1748617,305,109
1748628,341,109
1748634,322,109
1748649,316,109
1748651,345,109
1748667,311,109
1748681,340,109
1748684,341,109
1748700,334,109
1748711,365,109
1748716,326,109
1748732,335,109
1748742,339,109
1748750,301,109
1748750,336,109
1748773,318,109
1748783,314,109
1748784,345,109
1748801,310,109
1748814,329,109
1748824,358,109
1748833,528,106
1748844,659,106
1748855,634,106
1748865,233,106
1748876,289,106
1748883,302,106
1748895,326,106
1748905,307,106
1748916,302,106
1748926,330,106
1748933,293,106
1748947,316,106
1748957,311,106
1748967,289,106
1748978,328,106
1748983,302,106
1748999,320,106
1749009,343,106
1749016,314,106
1749029,354,106
1749040,338,106
1749050,335,106
1749060,366,106
1749067,333,106
1749067,366,106
1749091,374,106
1749099,366,106
1749111,419,106
1749122,401,106
1749133,422,106
1749134,440,106
1749150,394,106
1749162,401,106
1749173,346,106
1749183,306,106
1749194,312,106
1749199,261,106
1749214,284,106
1749220,287,106
1749233,269,106
1749233,313,106
1749251,284,106
1749251,294,106
1749276,309,106
1749284,269,106
1749284,297,106
1749301,275,106
1749317,265,106
1749327,295,106
1749334,259,106
1749334,286,106
1749358,286,106
1749366,264,106
1749378,299,106
1749388,265,106
1749399,275,106
1749410,291,106
1749416,256,106
1749429,291,106
1749440,273,106
1749450,265,106
1749450,297,106
1749466,262,106
1749481,289,106
1749484,292,106
1749499,269,106
1749512,310,106
1749520,283,106
1749532,295,106
1749542,315,106
1749550,283,106
1749563,324,106
1749571,309,106
1749583,303,106
1749594,334,106
1749600,298,106
1749615,323,106
1749623,320,106
1749632,293,106
1749645,331,106
1749651,300,106
1749666,307,106
1749676,326,106
1749683,296,106
1749697,335,106
1749707,318,106
1749716,310,106
1749727,342,106
1749734,304,106
1749734,328,106
1749751,327,106
1749767,303,106
1749779,342,106
1749783,314,106
1749799,323,106
1749809,342,106
1749816,306,106
1749830,340,106
1749834,323,106
1749849,313,106
1749861,344,106
1749867,310,106
1749876,350,106
1749892,350,106
1749900,318,106
1749912,352,106
1749923,313,106
1749932,318,106
1749943,334,106
1749950,299,106
1749963,331,106
1749971,314,106
1749983,304,106
1749985,323,106
1750005,337,106
1750015,590,103
1750026,659,103
1750033,576,103
1750033,230,103
1750056,274,103
1750066,323,103
1750075,338,103
1750083,302,103
1750097,335,103
1750107,319,103
1750117,311,103
1750124,342,103
1750138,308,103
1750148,339,103
1750158,346,103
1750166,328,103
1750179,372,103
1750189,352,103
1750199,368,103
1750210,395,103
1750216,367,103
1750231,413,103
1750241,406,103
1750251,402,103
1750251,439,103
1750267,409,103
1750277,443,103
1750283,456,103
1750299,443,103
1750313,490,103
1750317,462,103
1750333,460,103
1750343,452,103
1750351,385,103
1750364,389,103
1750373,350,103
1750383,324,103
1750395,350,103
1750401,313,103
1750416,341,103
1750425,350,103
1750432,328,103
1750446,368,103
1750457,341,103
1750466,347,103
1750477,362,103
1750484,322,103
1750497,351,103
1750508,331,103
1750516,322,103
1750528,357,103
1750533,325,103
1750549,352,103
1750558,360,103
1750567,339,103
1750567,378,103
1750590,350,103
1750599,353,103
1750611,369,103
1750617,328,103
1750624,353,103
1750641,333,103
1750650,318,103
1750662,348,103
1750672,308,103
1750682,330,103
1750692,335,103
1750700,309,103
1750713,346,103
1750723,318,103
1750733,325,103
1750744,346,103
1750752,310,103
1750752,343,103
1750767,326,103
1750784,312,103
1750795,342,103
1750805,305,103
1750815,327,103
1750826,333,103
1750833,310,103
1750847,346,103
1750857,320,103
1750866,329,103
1750877,350,103
1750883,313,103
1750897,350,103
1750900,345,103
1750916,332,103
1750929,355,103
1750938,317,103
1750949,333,103
1750960,332,103
1750967,306,103
1750974,343,103
1750991,314,103
1751000,318,103
1751011,339,103
1751016,294,103
1751030,345,103
1751033,507,106
1751049,658,106
1751062,656,106
1751072,246,106
1751082,260,106
1751092,327,106
1751100,294,106
1751113,324,106
1751122,296,106
1751133,299,106
1751144,319,106
1751153,281,106
1751165,314,106
1751175,301,106
1751183,289,106
1751195,326,106
1751206,296,106
1751215,329,106
1751221,338,106
1751233,315,106
1751246,359,106
1751253,337,106
1751266,347,106
1751278,373,106
1751284,342,106
1751284,385,106
1751308,382,106
1751316,382,106
1751329,426,106
1751339,397,106
1751349,420,106
1751360,415,106
1751367,363,106
1751381,367,106
1751383,309,106
1751400,288,106
1751411,292,106
1751421,245,106
1751432,278,106
1751442,270,106
1751450,264,106
1751462,306,106
1751471,276,106
1751483,302,106
1751494,312,106
1751501,282,106
1751514,316,106
1751524,284,106
1751533,285,106
1751544,304,106
1751553,269,106
1751565,304,106
1751575,293,106
1751583,281,106
1751595,319,106
1751605,285,106
1751615,308,106
1751626,312,106
1751634,283,106
1751647,317,106
1751653,291,106
1751667,295,106
1751678,318,106
1751684,284,106
1751698,315,106
1751700,304,106
1751718,289,106
1751726,324,106
1751734,289,106
1751749,311,106
1751760,321,106
1751766,293,106
1751781,331,106
1751783,304,106
1751800,308,106
1751800,333,106
1751817,295,106
1751832,328,106
1751842,317,106
1751851,305,106
1751862,340,106
1751873,304,106
1751883,324,106
1751894,333,106
1751900,304,106
1751914,343,106
1751924,317,106
1751932,320,106
1751944,344,106
1751953,308,106
1751953,340,106
1751975,329,106
1751984,314,106
1751995,346,106
1752006,309,106
1752016,329,106
1752024,334,106
1752033,306,106
1752048,344,106
1752058,321,106
1752067,325,106
1752069,348,106
1752083,314,106
1752099,360,106
1752100,350,106
1752117,326,106
1752126,357,106
1752134,315,106
1752149,328,106
1752160,333,106
1752166,301,106
1752181,338,106
1752191,314,106
1752200,315,106
1752203,331,106
1752216,308,106
1752232,508,104
1752243,658,104
1752253,650,104
1752263,279,104
1752273,237,104
1752283,320,104
1752294,318,104
1752300,283,104
1752314,321,104
1752320,297,104
1752333,297,104
1752345,318,104
1752356,278,104
1752366,308,104
1752374,302,104
1752382,293,104
1752397,335,104
1752407,307,104
1752417,331,104
1752424,344,104
1752433,319,104
1752433,357,104
1752458,336,104
1752467,342,104
1752479,370,104
1752483,344,104
1752500,390,104
1752509,394,104
1752517,391,104
1752530,433,104
1752540,400,104
1752550,408,104
1752560,393,104
1752567,332,104
1752581,340,104
1752584,292,104
1752600,280,104
1752613,297,104
1752617,257,104
1752633,291,104
1752642,284,104
1752653,269,104
1752653,305,104
1752667,272,104
1752683,291,104
1752683,299,104
1752700,267,104
1752715,304,104
1752724,277,104
1752733,277,104
1752745,302,104
1752753,265,104
1752766,295,104
1752776,289,104
1752783,274,104
1752797,311,104
1752800,278,104
1752817,298,104
1752828,306,104
1752833,273,104
1752848,310,104
1752853,284,104
1752867,283,104
1752875,306,104
1752883,269,104
1752898,298,104
1752901,293,104
1752918,281,104
1752931,318,104
1752933,287,104
1752949,306,104
1752961,319,104
1752966,288,104
1752981,327,104
1752992,300,104
1753000,297,104
1753013,320,104
1753021,284,104
1753033,314,104
1753043,306,104
1753049,291,104
1753054,328,104
1753067,297,104
1753084,320,104
1753084,328,104
1753100,297,104
1753115,336,104
1753126,312,104
1753134,306,104
1753146,335,104
1753156,300,104
1753167,329,104
1753176,326,104
1753183,310,104
1753197,349,104
1753208,315,104
1753216,330,104
1753229,339,104
1753233,309,104
1753248,345,104
1753259,320,104
1753267,317,104
1753267,346,104
1753290,312,104
1753300,343,104
1753300,350,104
1753316,337,104
1753330,368,104
1753341,331,104
1753349,338,104
1753361,346,104
1753366,311,104
1753383,345,104
1753392,322,104
1753400,320,104
1753413,341,104
1753420,294,104
1753434,366,104
1753434,581,102
1753454,659,102
1753465,625,102
1753467,210,102
1753483,286,102
1753494,341,102
1753505,302,102
1753515,335,102
1753523,316,102
1753533,315,102
1753533,342,102
1753557,305,102
1753566,339,102
1753578,339,102
1753584,325,102
1753598,368,102
1753603,342,102
1753616,365,102
1753628,385,102
1753632,361,102
1753648,405,102
1753659,390,102
1753669,393,102
1753679,424,102
1753684,393,102
1753700,430,102
1753710,434,102
1753717,427,102
1753726,475,102
1753734,452,102
1753750,469,102
1753762,476,102
1753767,420,102
1753782,425,102
1753793,375,102
1753800,348,102
1753813,361,102
1753823,319,102
1753833,347,102
1753844,346,102
1753854,332,102
1753854,371,102
1753867,343,102
1753883,358,102
1753895,370,102
1753901,334,102
1753916,368,102
1753926,346,102
1753933,336,102
1753947,366,102
1753954,330,102
1753967,361,102
1753978,360,102
1753983,343,102
1753998,382,102
1754008,355,102
1754017,371,102
1754029,382,102
1754039,342,102
1754049,369,102
1754059,340,102
1754066,327,102
1754080,347,102
1754091,306,102
1754100,331,102
1754112,329,102
1754118,309,102
1754132,348,102
1754142,316,102
1754150,331,102
1754162,346,102
1754172,311,102
1754182,344,102
1754184,322,102
1754200,312,102
1754200,338,102
1754224,300,102
1754233,320,102
1754245,313,102
1754255,288,102
1754265,321,102
1754275,288,102
1754284,301,102
1754284,321,102
1754306,294,102
1754316,338,102
1754326,324,102
1754333,321,102
1754333,352,102
1754355,313,102
1754367,337,102
1754376,330,102
1754383,304,102
1754398,339,102
1754409,306,102
1754416,327,102
1754429,354,102
1754439,317,102
1754450,352,102
1754455,330,102
1754467,318,102
1754481,346,102
1754491,307,102
1754500,333,102
1754500,328,102
1754522,304,102
1754532,336,102
1754542,294,102
1754549,395,102
1754560,655,104
1754573,658,104
1754581,458,104
1754593,208,104
1754604,296,104
1754613,340,104
1754622,293,104
1754635,317,104
1754645,313,104
1754654,288,104
1754666,322,104
1754671,287,104
1754686,300,104
1754688,318,104
1754705,287,104
1754717,331,104
1754727,319,104
1754737,318,104
1754747,353,104
1754755,321,104
1754768,352,104
1754778,355,104
1754787,336,104
1754798,380,104
1754804,358,104
1754820,376,104
1754830,403,104
1754838,380,104
1754850,424,104
1754860,410,104
1754871,399,104
1754881,413,104
1754888,347,104
1754888,339,104
1754905,312,104
1754921,268,104
1754932,294,104
1754937,258,104
1754952,269,104
1754963,289,104
1754973,256,104
1754984,295,104
1754994,281,104
1755004,275,104
1755014,305,104
1755024,268,104
1755035,292,104
1755045,291,104
1755055,265,104
1755065,302,104
1755072,272,104
1755072,282,104
1755087,301,104
1755104,267,104
1755117,306,104
1755127,291,104
1755137,285,104
1755147,315,104
1755155,277,104
1755168,301,104
1755177,300,104
1755187,276,104
1755199,314,104
1755204,282,104
1755219,292,104
1755222,310,104
1755237,275,104
1755251,313,104
1755256,297,104
1755271,292,104
1755277,329,104
1755288,295,104
1755302,323,104
1755312,324,104
1755321,300,104
1755332,337,104
1755343,304,104
1755354,310,104
1755363,327,104
1755373,292,104
1755384,329,104
1755394,317,104
1755405,311,104
1755415,346,104
1755421,313,104
1755435,338,104
1755446,341,104
1755455,314,104
1755467,350,104
1755476,319,104
1755487,327,104
1755496,348,104
1755505,314,104
1755505,349,104
1755522,333,104
1755538,324,104
1755538,355,104
1755556,317,104
1755569,342,104
1755579,343,104
1755588,319,104
1755588,355,104
1755604,325,104
1755620,334,104
1755621,353,104
1755638,320,104
1755650,353,104
1755656,342,104
1755671,346,104
1755681,374,104
1755688,331,104
1755703,349,104
1755705,341,104
1755722,310,104
1755732,344,104
1755738,315,104
1755753,323,104
1755762,344,104
1755772,309,104
1755772,335,104
1755795,353,104
1755805,536,103
1755815,659,103
1755821,634,103
1755836,240,103
1755839,282,103
1755856,302,103
1755866,325,103
1755876,294,103
1755876,301,103
1755897,324,103
1755905,288,103
1755918,322,103
1755928,306,103
1755938,294,103
1755949,329,103
1755956,297,103
1755960,324,103
1755971,332,103
1755988,310,103
1756000,353,103
1756010,329,103
1756021,338,103
1756030,362,103
1756037,332,103
1756051,371,103
1756056,367,103
1756071,369,103
1756081,413,103
1756092,388,103
1756104,417,103
1756106,419,103
1756121,381,103
1756133,394,103
1756138,335,103
1756154,310,103
1756164,309,103
1756170,261,103
1756184,289,103
1756195,273,103
1756205,263,103
1756216,297,103
1756221,259,103
1756236,278,103
1756245,281,103
1756256,251,103
1756267,286,103
1756277,258,103
1756287,263,103
1756298,284,103
1756305,248,103
1756305,282,103
1756328,269,103
1756338,258,103
1756349,296,103
1756359,264,103
1756369,287,103
1756380,291,103
1756387,266,103
1756400,304,103
1756411,274,103
1756421,277,103
1756431,299,103
1756438,263,103
1756438,297,103
1756462,285,103
1756471,273,103
1756483,311,103
1756491,276,103
1756503,301,103
1756504,308,103
1756521,282,103
1756534,322,103
1756544,296,103
1756554,299,103
1756557,322,103
1756572,287,103
1756581,321,103
1756587,312,103
1756605,297,103
1756616,331,103
1756620,296,103
1756636,315,103
1756638,322,103
1756657,293,103
1756668,332,103
1756672,308,103
1756688,311,103
1756698,338,103
1756704,303,103
1756718,336,103
1756727,326,103
1756738,312,103
1756750,345,103
1756757,310,103
1756770,330,103
1756780,336,103
1756787,311,103
1756801,348,103
1756811,325,103
1756821,346,103
1756831,372,103
1756838,329,103
1756852,359,103
1756862,338,103
1756871,321,103
1756883,351,103
1756888,314,103
1756903,332,103
1756913,337,103
1756921,308,103
1756933,332,103
1756944,331,103
1756955,532,101
1756965,659,101
1756971,638,101
1756985,241,101
1756995,278,101
1757004,316,101
1757016,351,101
1757026,316,101
1757037,337,101
1757046,349,101
1757056,325,101
1757056,365,101
1757071,345,101
1757087,356,101
1757090,387,101
1757105,355,101
1757119,392,101
1757122,387,101
1757137,374,101
1757149,411,101
1757157,378,101
1757170,401,101
1757174,415,101
1757188,391,101
1757188,439,101
1757204,427,101
1757222,442,101
1757232,482,101
1757237,459,101
1757252,496,101
1757263,487,101
1757271,460,101
1757283,466,101
1757288,397,101
1757303,382,101
1757314,367,101
1757321,323,101
1757335,352,101
1757343,330,101
1757354,333,101
1757365,361,101
1757371,332,101
1757371,365,101
1757387,359,101
1757404,340,101
1757417,370,101
1757421,333,101
1757437,348,101
1757447,357,101
1757457,330,101
1757468,370,101
1757476,352,101
1757487,355,101
1757487,383,101
1757504,348,101
1757504,383,101
1757530,376,101
1757538,357,101
1757543,387,101
1757558,347,101
1757571,356,101
1757572,360,101
1757587,323,101
1757601,353,101
1757605,327,101
1757621,322,101
1757632,346,101
1757638,310,101
1757653,342,101
1757662,336,101
1757671,320,101
1757683,355,101
1757688,318,101
1757704,330,101
1757713,340,101
1757721,305,101
1757721,339,101
1757737,318,101
1757754,316,101
1757765,344,101
1757776,311,101
1757786,342,101
1757787,337,101
1757804,318,101
1757804,350,101
1757827,314,101
1757837,324,101
1757848,334,101
1757858,299,101
1757868,332,101
1757877,320,101
1757887,327,101
1757899,346,101
1757904,308,101
1757919,333,101
1757925,323,101
1757938,302,101
1757950,337,101
1757958,303,101
1757971,315,101
1757981,322,101
1757988,285,101
1758001,310,101
1758011,376,101
1758021,620,103
1758033,658,103
1758038,410,103
1758038,205,103
1758064,293,103
1758071,288,103
1758084,316,103
1758088,279,103
1758104,287,103
1758114,293,103
1758121,254,103
1758135,285,103
1758146,265,103
1758155,266,103
1758158,305,103
1758176,281,103
1758187,322,103
1758197,328,103
1758205,315,103
1758213,358,103
1758221,329,103
1758237,345,103
1758249,359,103
1758258,330,103
1758262,373,103
1758279,360,103
1758288,365,103
1758288,409,103
1758310,386,103
1758321,422,103
1758330,418,103
1758338,379,103
1758350,384,103
1758361,318,103
1758371,300,103
1758382,292,103
1758388,244,103
1758388,276,103
1758412,258,103
1758421,259,103
1758433,296,103
1758438,262,103
1758438,294,103
1758464,298,103
1758470,277,103
1758484,313,103
1758494,278,103
1758504,284,103
1758516,297,103
1758521,259,103
1758536,294,103
1758545,276,103
1758555,270,103
1758566,304,103
1758577,273,103
1758587,305,103
1758598,308,103
1758604,284,103
1758617,319,103
1758628,282,103
1758638,288,103
1758638,302,103
1758658,267,103
1758669,303,103
1758671,286,103
1758688,283,103
1758688,317,103
1758710,284,103
1758720,314,103
1758730,314,103
1758738,291,103
1758751,327,103
1758761,298,103
1758771,306,103
1758782,321,103
1758792,286,103
1758802,322,103
1758813,304,103
1758821,299,103
1758833,331,103
1758838,294,103
1758854,320,103
1758864,321,103
1758871,298,103
1758884,337,103
1758888,307,103
1758904,318,103
1758916,336,103
1758922,303,103
1758926,342,103
1758946,320,103
1758955,312,103
1758964,342,103
1758976,308,103
1758988,333,103
1758998,332,103
1759004,309,103
1759017,349,103
1759028,323,103
1759037,337,103
1759049,353,103
1759058,319,103
1759069,354,103
1759080,336,103
1759088,325,103
1759088,357,103
1759111,322,103
1759120,346,103
1759131,348,103
1759137,336,103
1759152,380,103
1759162,341,103
1759171,349,103
1759176,361,103
1759193,321,103
1759203,355,103
1759214,337,103
1759221,328,103
1759234,358,103
1759238,320,103
1759254,336,103
1759264,348,103
1759271,475,102
1759285,659,102
1759288,658,102
1759305,334,102
1759316,276,102
1759326,317,102
1759336,342,102
1759338,319,102
1759355,310,102
1759368,341,102
1759378,304,102
1759388,328,102
1759398,328,102
1759405,301,102
1759418,341,102
1759429,317,102
1759438,328,102
1759449,354,102
1759458,324,102
1759469,361,102
1759480,351,102
1759488,345,102
1759501,384,102
1759511,354,102
1759521,382,102
1759531,393,102
1759539,377,102
1759552,427,102
1759562,408,102
1759571,423,102
1759583,446,102
1759588,407,102
1759603,423,102
1759605,382,102
1759621,342,102
1759634,351,102
1759644,296,102
1759654,308,102
1759665,305,102
1759671,274,102
1759671,311,102
1759696,282,102
1759704,289,102
1759717,312,102
1759721,279,102
1759737,315,102
1759747,302,102
1759755,290,102
1759759,323,102
1759778,286,102
1759787,308,102
1759798,311,102
1759805,280,102
1759819,316,102
1759829,288,102
1759838,293,102
1759850,316,102
1759859,279,102
1759870,312,102
1759880,299,102
1759888,285,102
1759901,318,102
1759911,282,102
1759921,305,102
1759932,308,102
1759938,282,102
1759952,322,102
1759963,294,102
1759971,300,102
1759982,322,102
1759993,284,102
1760004,316,102
1760014,301,102
1760021,288,102
1760035,328,102
1760044,297,102
1760054,325,102
1760065,338,102
1760071,314,102
1760086,352,102
1760096,322,102
1760104,322,102
1760116,339,102
1760121,299,102
1760137,331,102
1760147,320,102
1760154,310,102
1760168,349,102
1760178,320,102
1760187,348,102
1760198,358,102
1760205,329,102
1760205,363,102
1760221,333,102
1760237,332,102
1760251,350,102
1760260,311,102
1760271,344,102
1760280,336,102
1760288,321,102
1760288,359,102
1760312,322,102
1760321,343,102
1760321,348,102
1760338,315,102
1760353,349,102
1760363,317,102
1760372,318,102
1760383,339,102
1760394,297,102
1760404,332,102
1760414,336,102
1760420,320,102
1760435,349,102
1760445,314,102
1760454,329,102
1760466,335,102
1760471,303,102
1760486,338,102
1760488,308,102
1760505,308,102
1760515,329,102
1760527,279,102
1760537,360,102
1760538,566,100
1760555,658,100
1760568,567,100
1760578,177,100
1760587,272,100
1760599,308,100
1760604,265,100
1760604,299,100
1760631,273,100
1760638,274,100
1760650,299,100
1760661,264,100
1760671,296,100
1760682,288,100
1760687,278,100
1760701,320,100
1760711,290,100
1760720,314,100
1760733,329,100
1760743,300,100
1760753,340,100
1760764,322,100
1760771,328,100
1760783,358,100
1760794,332,100
1760804,372,100
1760815,373,100
1760821,369,100
1760835,416,100
1760846,391,100
1760854,411,100
1760866,411,100
1760871,356,100
1760871,362,100
1760887,309,100
1760904,285,100
1760917,294,100
1760928,253,100
1760938,283,100
1760948,276,100
1760954,262,100
1760968,303,100
1760979,274,100
1760988,293,100
1760999,302,100
1761004,274,100
1761021,310,100
1761030,286,100
1761037,281,100
1761051,306,100
1761061,264,100
1761071,294,100
1761082,290,100
1761088,281,100
1761102,324,100
1761112,298,100
1761121,320,100
1761133,334,100
1761143,301,100
1761154,332,100
1761163,307,100
1761174,301,100
1761184,323,100
1761188,283,100
1761204,312,100
1761215,307,100
1761221,291,100
1761235,329,100
1761245,298,100
1761254,316,100
1761266,329,100
1761272,298,100
1761287,337,100
1761289,316,100
1761305,318,100
1761318,342,100
1761328,307,100
1761338,337,100
1761348,333,100
1761355,313,100
1761369,348,100
1761379,318,100
1761387,338,100
1761400,349,100
1761404,323,100
1761420,362,100
1761425,341,100
1761438,346,100
1761451,384,100
1761461,352,100
1761470,376,100
1761470,370,100
1761492,344,100
1761502,381,100
1761513,347,100
1761521,365,100
1761521,379,100
1761538,350,100
1761538,388,100
1761564,359,100
1761571,372,100
1761585,580,103
1761595,659,103
1761605,659,103
1761605,349,103
1761622,277,103
1761635,388,103
1761646,355,103
1761655,368,103
1761662,381,103
1761677,349,103
1761687,385,103
1761697,361,103
1761704,358,103
1761718,389,103
1761728,358,103
1761738,389,103
1761748,392,103
1761755,384,103
1761770,429,103
1761779,403,103
1761787,422,103
1761800,434,103
1761810,404,103
1761821,440,103
1761831,419,103
1761837,418,103
1761852,454,103
1761862,431,103
1761871,473,103
1761882,481,103
1761888,469,103
1761902,496,103
1761904,438,103
1761922,412,103
1761934,392,103
1761944,328,103
1761954,341,103
1761965,310,103
1761971,301,103
1761985,329,103
1761995,298,103
1762004,330,103
1762016,332,103
1762024,313,103
1762036,347,103
1762047,311,103
1762054,317,103
1762067,326,103
1762076,293,103
1762088,327,103
1762098,308,103
1762104,304,103
1762119,335,103
1762128,299,103
1762137,328,103
1762148,327,103
1762155,304,103
1762162,339,103
1762172,304,103
1762187,314,103
1762201,324,103
1762205,288,103
1762221,322,103
1762231,301,103
1762238,294,103
1762251,322,103
1762262,283,103
1762271,307,103
1762282,304,103
1762293,283,103
1762303,322,103
1762314,293,103
1762322,307,103
1762325,321,103
1762338,287,103
1762354,322,103
1762364,302,103
1762371,295,103
1762385,322,103
1762396,284,103
1762404,310,103
1762404,308,103
1762421,287,103
1762437,327,103
1762437,295,103
1762455,305,103
1762467,334,103
1762478,304,103
1762488,329,103
1762498,309,103
1762504,292,103
1762519,318,103
1762529,281,103
1762537,308,103
1762549,309,103
1762560,286,103
1762571,323,103
1762581,284,103
1762589,299,103
1762589,465,106
1762606,657,106
1762621,655,106
1762622,271,106
1762637,214,106
1762653,318,106
1762662,278,106
1762671,300,106
1762683,300,106
1762693,274,106
1762704,309,106
1762715,275,106
1762722,283,106
1762726,301,106
1762745,271,106
1762755,313,106
1762764,305,106
1762770,306,106
1762786,344,106
1762796,312,106
1762805,343,106
1762812,346,106
1762821,324,106
1762837,361,106
1762838,335,106
1762855,354,106
1762868,387,106
1762878,369,106
1762888,420,106
1762888,415,106
1762904,408,106
1762919,430,106
1762922,369,106
1762938,359,106
1762938,326,106
1762960,272,106
1762971,292,106
1762972,256,106
1762989,264,106
1763001,286,106
1763004,257,106
1763021,298,106
1763021,285,106
1763039,277,106
1763052,309,106
1763063,272,106
1763072,297,106
1763072,295,106
1763094,271,106
1763104,309,106
1763114,280,106
1763122,290,106
1763122,310,106
1763145,275,106
1763155,311,106
1763166,295,106
1763172,285,106
1763186,318,106
1763196,282,106
1763205,306,106
1763217,308,106
1763225,284,106
1763237,324,106
1763237,294,106
1763254,300,106
1763264,318,106
1763271,286,106
1763289,321,106
1763299,311,106
1763305,303,106
1763319,337,106
1763329,302,106
1763337,326,106
1763350,325,106
1763361,298,106
1763370,334,106
1763381,303,106
1763387,311,106
1763402,332,106
1763412,300,106
1763421,337,106
1763432,325,106
1763443,317,106
1763453,349,106
1763463,314,106
1763471,335,106
1763484,336,106
1763494,308,106
1763504,347,106
1763515,318,106
1763521,325,106
1763535,346,106
1763545,312,106
1763555,348,106
1763565,337,106
1763576,327,106
1763587,358,106
1763597,321,106
1763604,341,106
1763618,343,106
1763628,315,106
1763638,350,106
1763648,323,106
1763654,330,106
1763668,353,106
1763678,317,106
1763687,350,106
1763699,337,106
1763709,326,106
1763720,356,106
1763722,320,106
1763737,340,106
1763737,345,106
1763754,318,106
1763771,359,106
1763781,329,106
1763788,336,106
1763801,367,106
1763805,342,106
1763821,364,106
1763832,349,106
1763843,330,106
1763853,356,106
1763864,317,106
1763873,336,106
1763884,342,106
1763888,315,106
1763905,354,106
1763914,322,106
1763920,321,106
1763936,450,101
1763938,655,101
1763956,659,101
1763966,438,101
1763970,219,101
1763987,340,101
1763997,305,101
1764005,314,101
1764017,319,101
1764024,291,101
1764038,331,101
1764039,306,101
1764054,307,101
1764068,330,101
1764072,297,101
1764087,333,101
1764099,326,101
1764110,317,101
1764120,355,101
1764130,322,101
1764138,349,101
1764151,360,101
1764155,336,101
1764171,376,101
1764174,355,101
1764190,365,101
1764203,399,101
1764205,378,101
1764221,423,101
1764234,420,101
1764238,409,101
1764253,438,101
1764264,384,101
1764271,374,101
1764285,347,101
1764295,291,101
1764305,309,101
1764305,273,101
1764322,273,101
1764336,297,101
1764338,263,101
1764354,298,101
1764366,288,101
1764377,271,101
1764387,301,101
1764397,264,101
1764404,279,101
1764418,286,101
1764428,260,101
1764437,298,101
1764448,273,101
1764455,276,101
1764469,300,101
1764479,264,101
1764487,295,101
1764500,282,101
1764511,264,101
1764520,298,101
1764530,262,101
1764537,281,101
1764551,290,101
1764562,264,101
1764571,300,101
1764582,274,101
1764588,277,101
1764603,303,101
1764613,268,101
1764622,299,101
1764633,292,101
1764638,280,101
1764654,314,101
1764664,280,101
1764673,297,101
1764684,307,101
1764687,278,101
1764705,317,101
1764714,293,101
1764722,296,101
1764722,321,101
1764747,287,101
1764756,320,101
1764767,311,101
1764771,296,101
1764787,334,101
1764798,301,101
1764805,315,101
1764818,326,101
1764828,296,101
1764838,336,101
1764848,312,101
1764859,318,101
1764869,345,101
1764880,310,101
1764887,340,101
1764900,333,101
1764911,316,101
1764921,351,101
1764931,316,101
1764938,336,101
1764952,347,101
1764963,317,101
1764971,357,101
1764983,332,101
1764992,336,101
1765003,372,101
1765005,349,101
1765021,376,101
1765034,364,101
1765045,342,101
1765054,370,101
1765063,334,101
1765071,350,101
1765085,356,101
1765095,325,101
1765105,363,101
1765116,337,101
1765125,326,101
1765136,428,102
1765147,642,102
1765154,659,102
1765167,562,102
1765178,210,102
1765188,339,102
1765197,333,102
1765205,344,102
1765217,354,102
1765222,326,102
1765237,366,102
1765250,344,102
1765254,346,102
1765270,376,102
1765280,345,102
1765287,376,102
1765301,371,102
1765311,358,102
1765321,402,102
1765332,376,102
1765337,399,102
1765352,418,102
1765362,393,102
1765371,435,102
1765383,413,102
1765393,415,102
1765403,446,102
1765414,417,102
1765421,456,102
1765434,460,102
1765438,450,102
1765454,487,102
1765465,441,102
1765471,430,102
1765485,407,102
1765496,346,102
1765504,361,102
1765516,322,102
1765521,313,102
1765537,337,102
1765547,303,102
1765554,334,102
1765568,331,102
1765577,313,102
1765587,348,102
1765598,318,102
1765604,333,102
1765618,346,102
1765628,315,102
1765638,352,102
1765649,331,102
1765654,326,102
1765670,353,102
1765681,314,102
1765688,343,102
1765701,338,102
1765713,322,102
1765721,362,102
1765732,331,102
1765742,347,102
1765752,353,102
1765763,314,102
1765771,346,102
1765783,317,102
1765794,304,102
1765804,326,102
1765814,284,102
1765821,311,102
1765834,308,102
1765845,290,102
1765854,330,102
1765865,297,102
1765877,313,102
1765886,325,102
1765896,291,102
1765904,323,102
1765916,299,102
1765922,291,102
1765937,316,102
1765938,279,102
1765956,306,102
1765967,303,102
1765971,282,102
1765988,317,102
1765999,288,102
1766004,301,102
1766019,316,102
1766023,282,102
1766038,317,102
1766038,297,102
1766054,291,102
1766070,318,102
1766081,283,102
1766088,310,102
1766102,308,102
1766111,291,102
1766121,331,102
1766121,298,102
1766138,313,102
1766152,341,102
1766162,307,102
1766170,334,102
1766183,312,102
1766188,299,102
1766204,323,102
1766214,285,102
1766221,314,102
1766235,313,102
1766238,291,102
1766254,326,102
1766266,283,102
1766272,311,102
1766286,504,104
1766287,658,104
1766304,650,104
1766316,239,104
1766322,235,104
1766337,323,104
1766348,279,104
1766354,303,104
1766369,300,104
1766372,278,104
1766388,318,104
1766399,286,104
1766404,297,104
1766420,312,104
1766422,283,104
1766437,324,104
1766451,310,104
1766456,312,104
1766471,347,104
1766481,316,104
1766488,346,104
1766502,349,104
1766512,333,104
1766521,376,104
1766533,349,104
1766538,369,104
1766538,399,104
1766563,381,104
1766571,431,104
1766571,422,104
1766587,421,104
1766605,446,104
1766615,384,104
1766621,378,104
1766621,344,104
1766637,297,104
1766655,317,104
1766666,280,104
1766671,290,104
1766687,309,104
1766689,280,104
1766705,321,104
1766717,305,104
1766721,304,104
1766737,339,104
1766738,302,104
1766755,328,104
1766766,325,104
1766771,301,104
1766789,338,104
1766800,307,104
1766805,316,104
1766821,331,104
1766830,297,104
1766839,335,104
1766851,320,104
1766854,315,104
1766870,346,104
1766870,308,104
1766888,333,104
1766902,331,104
1766913,306,104
1766921,342,104
1766933,309,104
1766944,316,104
1766953,330,104
1766964,294,104
1766974,331,104
1766984,315,104
1766987,308,104
1767005,339,104
1767015,304,104
1767024,327,104
1767024,325,104
1767046,300,104
1767055,337,104
1767066,305,104
1767077,315,104
1767087,331,104
1767097,296,104
1767104,333,104
1767118,318,104
1767128,309,104
1767138,343,104
1767148,306,104
1767155,331,104
1767169,331,104
1767175,306,104
1767189,340,104
1767189,309,104
1767205,316,104
1767221,333,104
1767231,299,104
1767238,334,104
1767251,320,104
1767254,311,104
1767270,341,104
1767282,304,104
1767287,327,104
1767302,328,104
1767313,303,104
1767321,339,104
1767333,311,104
1767338,320,104
1767354,336,104
1767364,303,104
1767373,337,104
1767373,321,104
1767395,312,104
1767405,345,104
1767413,305,104
1767421,331,104
1767436,344,104
1767438,325,104
1767454,353,104
1767467,323,104
1767477,325,104
1767487,340,104
1767498,303,104
1767504,335,104
1767518,319,104
1767528,308,104
1767538,340,104
1767549,296,104
1767554,333,104
1767569,499,100
1767579,658,100
1767587,657,100
1767600,288,100
1767610,248,100
1767620,335,100
1767631,289,100
1767637,316,100
1767652,302,100
1767662,293,100
1767671,324,100
1767682,287,100
1767688,307,100
1767702,311,100
1767713,285,100
1767721,330,100
1767733,307,100
1767739,317,100
1767754,341,100
1767765,308,100
1767771,347,100
1767771,336,100
1767796,325,100
1767804,361,100
1767816,330,100
1767826,363,100
1767836,379,100
1767847,366,100
1767855,417,100
1767867,398,100
1767875,408,100
1767887,421,100
1767887,362,100
1767904,359,100
1767918,310,100
1767929,267,100
1767938,278,100
1767949,236,100
1767955,259,100
1767970,269,100
1767980,249,100
1767988,291,100
1768001,264,100
1768011,270,100
1768021,293,100
1768031,254,100
1768038,288,100
1768051,273,100
1768054,264,100
1768071,297,100
1768083,263,100
1768093,287,100
1768103,291,100
1768114,269,100
1768122,310,100
1768134,282,100
1768138,290,100
1768154,313,100
1768165,278,100
1768172,310,100
1768185,298,100
1768189,286,100
1768206,322,100
1768217,287,100
1768226,310,100
1768237,313,100
1768238,286,100
1768255,324,100
1768267,295,100
1768279,302,100
1768288,321,100
1768299,285,100
1768305,319,100
1768319,311,100
1768326,300,100
1768338,335,100
1768350,302,100
1768354,324,100
1768370,332,100
1768376,307,100
1768388,341,100
1768401,313,100
1768404,317,100
1768421,340,100
1768432,303,100
1768438,336,100
1768452,326,100
1768463,314,100
1768471,349,100
1768483,316,100
1768493,338,100
1768504,341,100
1768514,314,100
1768521,350,100
1768535,322,100
1768545,330,100
1768555,354,100
1768555,316,100
1768572,350,100
1768585,343,100
1768588,325,100
1768605,359,100
1768605,337,100
1768627,368,100
1768637,366,100
1768638,337,100
1768654,368,100
1768668,333,100
1768679,331,100
1768689,351,100
1768689,314,100
1768705,342,100
1768715,329,100
1768722,308,100
1768738,342,100
1768751,458,97
1768755,658,97
1768771,658,97
1768781,304,97
1768788,248,97
1768801,299,97
1768812,303,97
1768820,320,97
1768833,285,97
1768838,323,97
1768853,312,97
1768863,298,97
1768873,339,97
1768883,308,97
1768893,332,97
1768904,347,97
1768914,322,97
1768921,364,97
1768934,345,97
1768945,353,97
1768954,382,97
1768966,354,97
1768972,395,97
1768972,393,97
1768988,387,97
1769005,433,97
1769017,416,97
1769027,450,97
1769037,470,97
1769038,451,97
1769055,491,97
1769069,462,97
1769079,445,97
1769087,436,97
1769098,369,97
1769105,377,97
1769120,347,97
1769130,319,97
1769138,349,97
1769138,312,97
1769161,330,97
1769171,338,97
1769182,312,97
1769189,352,97
1769201,329,97
1769212,333,97
1769221,360,97
1769232,327,97
1769238,361,97
1769253,353,97
1769263,336,97
1769274,370,97
1769283,338,97
1769288,358,97
1769304,370,97
1769315,346,97
1769321,392,97
1769335,372,97
1769346,373,97
1769355,396,97
1769366,355,97
1769375,378,97
1769386,361,97
1769396,339,97
1769404,372,97
1769417,338,97
1769423,355,97
1769438,364,97
1769448,333,97
1769455,371,97
1769469,349,97
1769479,348,97
1769488,370,97
1769499,334,97
1769510,364,97
1769520,353,97
1769530,332,97
1769538,365,97
1769551,332,97
1769561,350,97
1769571,356,97
1769576,327,97
1769588,370,97
1769602,359,97
1769605,353,97
1769622,375,97
1769622,334,97
1769639,354,97
1769639,344,97
1769663,322,97
1769672,353,97
1769684,318,97
1769695,331,97
1769705,337,97
1769716,294,97
1769721,372,97
1769736,569,103
1769745,659,103
1769754,623,103
1769766,196,103
1769777,286,103
1769786,319,103
1769797,293,103
1769804,324,103
1769818,290,103
1769827,307,103
1769837,317,103
1769848,284,103
1769854,320,103
1769869,299,103
1769879,298,103
1769888,324,103
1769888,287,103
1769906,320,103
1769920,318,103
1769921,303,103
1769937,342,103
1769952,311,103
1769962,335,103
1769972,355,103
1769982,335,103
1769988,384,103
1770002,373,103
1770013,381,103
1770021,419,103
1770033,391,103
1770044,422,103
1770054,399,103
1770055,347,103
1770071,348,103
1770085,285,103
1770095,277,103
1770104,273,103
1770115,233,103
1770121,272,103
1770135,252,103
1770147,253,103
1770154,283,103
1770167,248,103
1770178,284,103
1770188,283,103
1770189,268,103
1770205,305,103
1770217,275,103
1770228,288,103
1770238,300,103
1770249,267,103
1770255,301,103
1770270,278,103
1770275,274,103
1770288,303,103
1770288,268,103
1770305,297,103
1770321,293,103
1770321,274,103
1770339,311,103
1770352,278,103
1770355,295,103
1770371,307,103
1770383,274,103
1770388,311,103
1770403,288,103
1770413,285,103
1770421,314,103
1770433,281,103
1770437,313,103
1770453,311,103
1770464,293,103
1770471,330,103
1770485,298,103
1770495,312,103
1770504,324,103
1770516,292,103
1770523,330,103
1770536,309,103
1770547,303,103
1770555,332,103
1770567,296,103
1770577,325,103
1770588,323,103
1770598,304,103
1770604,343,103
1770619,310,103
1770628,324,103
1770637,336,103
1770649,305,103
1770655,340,103
1770670,320,103
1770672,314,103
1770688,343,103
1770688,306,103
1770706,334,103
1770720,332,103
1770731,309,103
1770738,347,103
1770738,315,103
1770763,327,103
1770771,340,103
1770782,306,103
1770793,342,103
1770803,322,103
1770814,319,103
1770821,347,103
1770834,311,103
1770845,342,103
1770854,339,103
1770864,316,103
1770872,350,103
1770885,328,103
1770896,346,103
1770905,350,103
1770905,317,103
1770921,347,103
1770937,323,103
1770946,318,103
1770955,345,103
1770967,306,103
1770978,334,103
1770988,330,103
1770998,300,103
1771004,338,103
1771019,445,102
1771029,658,102
1771037,658,102
1771050,331,102
1771060,255,102
1771070,313,102
1771080,302,102
1771087,325,102
1771101,287,102
1771107,315,102
1771121,313,102
1771132,288,102
1771138,323,102
1771153,292,102
1771162,308,102
1771172,330,102
1771183,301,102
1771188,344,102
1771204,329,102
1771214,326,102
1771221,359,102
1771235,327,102
1771245,355,102
1771255,357,102
1771255,340,102
1771271,388,102
1771286,368,102
1771288,396,102
1771305,426,102
1771314,404,102
1771326,444,102
1771337,422,102
1771348,398,102
1771355,400,102
1771361,331,102
1771371,329,102
1771388,308,102
1771388,271,102
1771404,303,102
1771414,273,102
1771430,287,102
1771437,306,102
1771450,275,102
1771456,310,102
1771470,291,102
1771481,283,102
1771488,310,102
1771488,268,102
1771504,294,102
1771521,291,102
1771533,267,102
1771538,305,102
1771538,275,102
1771563,285,102
1771571,302,102
1771583,265,102
1771589,300,102
1771605,280,102
1771614,270,102
1771621,300,102
1771634,259,102
1771645,284,102
1771654,284,102
1771666,260,102
1771673,299,102
1771686,272,102
1771696,285,102
1771705,304,102
1771717,269,102
1771727,306,102
1771737,287,102
1771748,277,102
1771754,307,102
1771768,273,102
1771778,299,102
1771788,300,102
1771788,276,102
1771809,316,102
1771820,286,102
1771830,296,102
1771838,316,102
1771850,279,102
1771854,314,102
1771870,298,102
1771881,290,102
1771887,323,102
1771901,287,102
1771912,314,102
1771921,316,102
1771932,293,102
1771943,334,102
1771953,306,102
1771963,315,102
1771971,333,102
1771984,301,102
1771994,335,102
1772004,318,102
1772006,310,102
1772022,344,102
1772036,307,102
1772038,333,102
1772054,334,102
1772065,310,102
1772076,348,102
1772086,318,102
1772088,329,102
1772104,347,102
1772118,314,102
1772128,350,102
1772137,334,102
1772148,323,102
1772158,360,102
1772168,336,102
1772178,361,102
1772188,356,102
1772200,331,102
1772209,364,102
1772219,327,102
1772223,334,102
1772238,354,102
1772251,316,102
1772254,347,102
1772271,329,102
1772272,314,102
1772287,346,102
1772287,457,100
1772305,659,100
1772322,658,100
1772322,331,100
1772338,258,100
1772353,310,100
1772363,318,100
1772372,330,100
1772383,291,100
1772394,327,100
1772405,313,100
1772415,300,100
1772421,333,100
1772435,302,100
1772445,330,100
1772455,338,100
1772455,319,100
1772477,363,100
1772486,340,100
1772488,352,100
1772504,380,100
1772518,354,100
1772528,398,100
1772538,390,100
1772549,386,100
1772554,425,100
1772569,402,100
1772579,439,100
1772587,457,100
1772599,442,99
1772610,487,99
1772620,458,99
1772630,450,99
1772637,441,99
1772652,374,99
1772661,381,99
1772670,347,99
1772672,327,99
1772689,359,99
1772689,327,99
1772705,353,99
1772721,362,99
1772733,336,99
1772744,372,99
1772754,340,99
1772764,343,99
1772772,359,99
1772785,322,99
1772795,355,99
1772804,344,99
1772815,335,99
1772822,374,99
1772822,343,99
1772846,367,99
1772854,373,99
1772864,349,99
1772872,388,99
1772872,361,99
1772897,360,99
1772905,375,99
1772914,332,99
1772922,359,99
1772938,340,99
1772949,325,99
1772954,358,99
1772969,320,99
1772980,340,99
1772988,346,99
1773000,318,99
1773005,355,99
1773021,329,99
1773030,332,99
1773038,354,99
1773051,319,99
1773055,349,99
1773071,336,99
1773082,321,99
1773088,355,99
1773088,318,99
1773113,336,99
1773121,341,99
1773134,311,99
1773143,347,99
1773154,319,99
1773164,322,99
1773173,343,99
1773184,308,99
1773195,342,99
1773204,330,99
1773216,317,99
1773226,353,99
1773236,315,99
1773246,332,99
1773254,346,99
1773267,328,99
1773277,354,99
1773288,324,99
1773298,321,99
1773304,334,99
1773318,296,99
1773322,329,99
1773338,316,99
1773349,302,99
1773354,337,99
1773369,298,99
1773380,307,99
1773388,406,103
1773388,626,103
1773411,658,103
1773421,435,103
1773431,193,103
1773438,310,103
1773452,285,103
1773455,310,103
1773472,299,103
1773483,284,103
1773488,318,103
1773488,282,103
1773514,296,103
1773521,303,103
1773534,276,103
1773537,317,103
1773553,297,103
1773565,304,103
1773573,333,103
1773585,304,103
1773595,344,103
1773605,338,103
1773616,327,103
1773626,368,103
1773636,337,103
1773639,364,103
1773655,379,103
1773667,364,103
1773673,415,103
1773688,398,103
1773698,406,103
1773705,430,103
1773719,378,103
1773728,381,103
1773737,338,103
1773750,293,103
1773755,305,103
1773770,254,103
1773779,267,103
1773788,276,103
1773801,249,103
1773811,293,103
1773821,272,103
1773832,276,103
1773838,307,103
1773852,274,103
1773862,308,103
1773871,298,103
1773881,279,103
1773893,311,103
1773904,271,103
1773914,287,103
1773921,296,103
1773935,268,103
1773945,307,103
1773954,287,103
1773965,290,103
1773975,318,103
1773986,281,103
1773988,309,103
1774005,297,103
1774014,279,103
1774027,312,103
1774036,278,103
1774047,293,103
1774055,302,103
1774068,273,103
1774078,314,103
1774087,292,103
1774099,294,103
1774105,321,103
1774119,286,103
1774124,317,103
1774137,309,103
1774150,291,103
1774155,327,103
1774170,295,103
1774181,312,103
1774188,323,103
1774200,294,103
1774204,334,103
1774221,311,103
1774224,312,103
1774238,339,103
1774238,302,103
1774263,335,103
1774271,326,103
1774283,308,103
1774289,344,103
1774304,310,103
1774305,327,103
1774321,338,103
1774335,307,103
1774345,345,103
1774354,321,103
1774365,320,103
1774374,347,103
1774386,309,103
1774396,339,103
1774405,333,103
1774417,318,103
1774424,358,103
1774438,325,103
1774447,347,103
1774454,361,103
1774467,335,103
1774478,379,103
1774488,359,103
1774499,361,103
1774509,389,103
1774519,348,103
1774521,377,103
1774539,367,103
1774550,345,103
1774555,381,103
1774571,362,103
1774575,389,103
1774588,395,103
1774588,364,103
1774605,395,103
1774621,358,103
1774632,344,103
1774643,359,103
1774652,309,103
1774663,336,103
1774672,334,103
1774675,316,103
1774688,368,103
1774704,486,100
1774714,658,100
1774721,659,100
1774721,338,100
1774745,260,100
1774754,305,100
1774766,283,100
1774775,299,100
1774775,263,100
1774797,301,100
1774805,304,100
1774816,289,100
1774827,328,100
1774837,293,100
1774848,308,100
1774855,318,100
1774855,283,100
1774875,325,100
1774888,308,100
1774890,314,100
1774909,350,100
1774919,322,100
1774930,362,100
1774939,360,100
1774939,346,100
1774955,391,100
1774971,365,100
1774981,390,100
1774988,411,100
1775002,387,100
1775005,429,100
1775022,406,100
1775022,389,100
1775038,395,100
1775053,329,100
1775063,334,100
1775071,309,100
1775084,277,100
1775095,311,100
1775104,277,100
1775115,294,100
1775125,309,100
1775135,278,100
1775138,316,100
1775155,298,100
1775166,293,100
1775176,319,100
1775187,277,100
1775196,305,100
1775204,297,100
1775217,275,100
1775227,311,100
1775238,276,100
1775249,289,100
1775254,303,100
1775268,270,100
1775279,308,100
1775287,287,100
1775300,282,100
1775304,309,100
1775320,268,100
