Timestamp,ECGValue,BPM
1988816,305,99
1988827,300,99
1988836,330,99
1988848,284,99
1988858,411,102
1988869,654,102
1988879,658,102
1988886,442,102
1988886,200,102
1988903,299,102
1988920,319,102
1988930,272,102
1988936,310,102
1988951,292,102
1988952,285,102
1988969,317,102
1988978,281,102
1988992,311,102
1989002,311,102
1989012,289,102
1989019,332,102
1989033,306,102
1989043,321,102
1989053,343,102
1989053,309,102
1989070,348,102
1989085,332,102
1989094,330,102
1989103,368,102
1989115,339,102
1989125,381,102
1989135,395,102
1989146,381,102
1989151,428,102
1989166,399,102
1989176,403,102
1989185,403,102
1989185,334,102
1989204,342,102
1989218,297,102
1989228,272,102
1989235,295,102
1989235,252,102
1989253,280,102
1989269,279,102
1989270,253,102
1989285,287,102
1989300,252,102
1989310,261,102
1989319,275,102
1989327,236,102
1989336,272,102
1989336,254,102
1989362,245,102
1989369,279,102
1989383,242,102
1989392,271,102
1989402,274,102
1989413,247,102
1989419,283,102
1989433,250,102
1989443,261,102
1989452,280,102
1989464,245,102
1989475,282,102
1989484,266,102
1989495,257,102
1989504,290,102
1989515,252,102
1989519,280,102
1989535,283,102
1989546,257,102
1989552,297,102
1989567,269,102
1989569,278,102
1989586,302,102
1989586,267,102
1989608,307,102
1989618,291,102
1989628,286,102
1989635,321,102
1989649,284,102
1989660,311,102
1989669,311,102
1989679,284,102
1989686,321,102
1989686,292,102
1989710,301,102
1989719,323,102
1989732,290,102
1989741,327,102
1989752,313,102
1989761,304,102
1989769,340,102
1989782,303,102
1989785,326,102
1989802,330,102
1989811,303,102
1989819,345,102
1989834,315,102
1989844,324,102
1989852,343,102
1989864,309,102
1989874,346,102
1989885,340,102
1989895,334,102
1989904,366,102
1989904,325,102
1989926,345,102
1989935,342,102
1989947,312,102
1989952,350,102
1989967,320,102
1989977,324,102
1989985,343,102
1989998,299,102
1990008,339,102
1990018,473,98
1990029,658,98
1990035,659,98
1990049,372,98
1990053,254,98
1990069,349,98
1990080,323,98
1990090,357,98
1990100,330,98
1990111,333,98
1990118,357,98
1990131,324,98
1990136,362,98
1990151,352,98
1990162,343,98
1990171,383,98
1990171,353,98
1990193,382,98
1990202,391,98
1990213,367,98
1990218,410,98
1990234,381,98
1990235,388,98
1990253,415,98
1990265,388,98
1990275,435,98
1990285,440,98
1990295,441,98
1990304,487,98
1990316,459,98
1990326,485,100
1990335,483,100
1990347,438,100
1990352,442,100
1990352,378,100
1990378,360,100
1990385,363,100
1990398,318,100
1990404,350,100
1990419,340,100
1990429,329,100
1990435,363,100
1990450,325,100
1990460,347,100
1990470,353,100
1990476,324,100
1990487,365,100
1990501,340,100
1990510,349,100
1990518,373,100
1990532,337,100
1990542,371,100
1990552,356,100
1990563,339,100
1990568,371,100
1990583,335,100
1990593,356,100
1990603,365,100
1990614,334,100
1990621,369,100
1990634,339,100
1990644,339,100
1990652,360,100
1990665,323,100
1990669,358,100
1990686,346,100
1990697,334,100
1990705,371,100
1990705,337,100
1990719,360,100
1990735,370,100
1990747,342,100
1990758,379,100
1990768,351,100
1990779,353,100
1990785,375,100
1990799,337,100
1990809,368,100
1990818,355,100
1990830,346,100
1990840,387,100
1990849,348,100
1990852,365,100
1990870,365,100
1990880,324,100
1990891,358,100
1990901,329,100
1990905,328,100
1990918,349,100
1990933,310,100
1990935,339,100
1990953,316,100
1990962,352,100
1990968,615,104
1990983,659,104
1990986,589,104
1991003,227,104
1991015,263,104
1991019,341,104
1991035,306,104
1991045,304,104
1991052,334,104
1991066,293,104
1991076,324,104
1991085,313,104
1991096,295,104
1991105,332,104
1991117,297,104
1991127,320,104
1991135,336,104
1991148,312,104
1991152,357,104
1991168,335,104
1991178,337,104
1991186,371,104
1991199,341,104
1991205,376,104
1991219,374,104
1991230,368,104
1991236,418,104
1991236,393,104
1991261,422,104
1991269,441,104
1991281,409,104
1991291,429,104
1991301,369,104
1991312,331,104
1991318,325,104
1991332,262,104
1991343,279,104
1991352,264,104
1991352,245,104
1991368,288,104
1991384,260,104
1991393,282,104
1991402,295,104
1991414,265,104
1991424,304,104
1991435,279,104
1991445,276,104
1991452,300,104
1991452,261,104
1991476,290,104
1991485,282,104
1991485,264,104
1991506,300,104
1991512,266,104
1991519,285,104
1991536,296,104
1991548,265,104
1991558,305,104
1991569,283,104
1991579,276,104
1991586,303,104
1991600,265,104
1991610,296,104
1991619,285,104
1991623,263,104
1991635,300,104
1991651,263,104
1991661,281,104
1991669,295,104
1991682,266,104
1991692,308,104
1991702,286,104
1991712,284,104
1991718,312,104
1991732,273,104
1991743,305,104
1991751,297,104
1991763,278,104
1991774,317,104
1991784,284,104
1991795,300,104
1991802,315,104
1991815,281,104
1991820,321,104
1991835,299,104
1991847,295,104
1991853,325,104
1991866,286,104
1991869,318,104
1991885,314,104
1991897,294,104
1991906,331,104
1991906,298,104
1991927,313,104
1991936,328,104
1991948,295,104
1991952,334,104
1991968,312,104
1991980,311,104
1991985,340,104
1992000,302,104
1992010,333,104
1992019,327,104
1992031,308,104
1992041,346,104
1992052,311,104
1992061,324,104
1992069,343,104
1992082,320,104
1992086,360,104
1992101,332,104
1992113,326,104
1992119,350,104
1992119,307,104
1992136,333,104
1992152,330,104
1992164,308,104
1992168,345,104
1992184,312,104
1992194,318,104
1992202,343,104
1992215,466,106
1992226,658,106
1992235,658,106
1992246,300,106
1992253,277,106
1992266,306,106
1992276,320,106
1992286,311,106
1992297,287,106
1992306,326,106
1992318,294,106
1992323,309,106
1992335,325,106
1992349,292,106
1992352,334,106
1992369,317,106
1992379,316,106
1992386,350,106
1992386,316,106
1992411,346,106
1992420,351,106
1992420,331,106
1992441,371,106
1992452,342,106
1992453,363,106
1992469,390,106
1992482,367,106
1992493,420,106
1992502,411,106
1992513,410,106
1992523,437,106
1992533,391,106
1992536,398,106
1992552,365,106
1992565,312,106
1992569,330,106
1992586,285,106
1992595,291,106
1992602,303,106
1992607,267,106
1992626,303,106
1992636,279,106
1992646,268,106
1992652,298,106
1992659,254,106
1992677,281,106
1992685,282,106
1992698,257,106
1992707,297,106
1992718,266,106
1992729,278,106
1992735,299,106
1992749,263,106
1992759,298,106
1992768,276,106
1992780,265,106
1992790,297,106
1992801,260,106
1992810,286,106
1992821,289,106
1992831,266,106
1992841,307,106
1992852,276,106
1992863,286,106
1992869,306,106
1992883,270,106
1992893,306,106
1992902,288,106
1992907,279,106
1992920,314,106
1992920,279,106
1992945,306,106
1992953,310,106
1992965,288,106
1992975,329,106
1992985,298,106
1992996,308,106
1993002,324,106
1993016,288,106
1993026,322,106
1993035,304,106
1993046,291,106
1993053,326,106
1993053,290,106
1993078,316,106
1993086,322,106
1993086,299,106
1993107,338,106
1993119,311,106
1993129,323,106
1993135,343,106
1993150,308,106
1993160,344,106
1993169,329,106
1993180,320,106
1993186,352,106
1993202,312,106
1993211,336,106
1993218,340,106
1993231,316,106
1993236,355,106
1993252,327,106
1993263,337,106
1993269,353,106
1993274,314,106
1993293,359,106
1993301,350,106
1993313,335,106
1993324,367,106
1993334,326,106
1993344,343,106
1993352,344,106
1993365,317,106
1993375,356,106
1993385,324,106
1993395,329,106
1993402,346,106
1993417,299,106
1993426,425,104
1993435,657,104
1993447,659,104
1993458,479,104
1993468,204,104
1993478,320,104
1993485,339,104
1993498,304,104
1993509,343,104
1993519,318,104
1993530,324,104
1993536,347,104
1993536,315,104
1993559,351,104
1993569,339,104
1993569,331,104
1993586,375,104
1993601,346,104
1993612,373,104
1993619,383,104
1993619,353,104
1993642,397,104
1993652,374,104
1993652,380,104
1993668,409,104
1993684,386,104
1993686,436,104
1993703,440,104
1993714,441,104
1993718,487,104
1993734,453,104
1993745,469,104
1993752,462,104
1993766,402,104
1993775,407,104
1993785,350,104
1993796,335,104
1993806,347,104
1993817,306,104
1993828,342,104
1993836,334,104
1993847,319,104
1993852,354,104
1993868,316,104
1993878,335,104
1993885,344,104
1993899,318,104
1993908,360,104
1993919,339,104
1993930,344,104
1993936,371,104
1993936,336,104
1993960,365,104
1993969,352,104
1993981,335,104
1993986,370,104
1994002,333,104
1994012,352,104
1994019,363,104
1994019,331,104
1994043,366,104
1994051,336,104
1994063,335,104
1994069,359,104
1994077,323,104
1994094,353,104
1994102,344,104
1994115,328,104
1994125,366,104
1994135,334,104
1994145,356,104
1994152,369,104
1994165,338,104
1994176,378,104
1994185,354,104
1994196,351,104
1994206,373,104
1994217,332,104
1994227,363,104
1994236,355,104
1994248,338,104
1994252,373,104
1994268,336,104
1994269,357,104
1994286,376,104
1994299,345,104
1994308,377,104
1994319,350,104
1994329,338,104
1994335,360,104
1994350,319,104
1994360,351,104
1994369,340,104
1994381,317,104
1994386,353,104
1994401,309,104
1994411,323,104
1994419,474,107
1994432,658,107
1994436,658,107
1994453,334,107
1994462,222,107
1994474,333,107
1994484,296,107
1994492,316,107
1994500,311,107
1994508,286,107
1994521,321,107
1994533,285,107
1994541,298,107
1994541,310,107
1994566,276,107
1994574,321,107
1994586,306,107
1994597,314,107
1994607,348,107
1994614,314,107
1994624,349,107
1994624,349,107
1994648,337,107
1994657,378,107
1994668,349,107
1994673,371,107
1994689,397,107
1994699,376,107
1994709,429,107
1994719,419,107
1994724,416,108
1994740,437,108
1994740,371,108
1994757,361,108
1994771,322,108
1994781,270,108
1994791,290,108
1994802,246,108
1994808,258,108
1994822,276,108
1994833,249,108
1994841,291,108
1994841,276,108
1994857,268,108
1994874,299,108
1994884,261,108
1994892,285,108
1994905,282,108
1994913,256,108
1994924,296,108
1994935,267,108
1994941,278,108
1994956,295,108
1994966,257,108
1994976,293,108
1994986,271,108
1994990,264,108
1995007,298,108
1995017,262,108
1995026,295,108
1995038,297,108
1995041,272,108
1995057,311,108
1995069,277,108
1995076,285,108
1995090,300,108
1995100,262,108
1995109,299,108
1995120,281,108
1995126,275,108
1995140,311,108
1995151,276,108
1995157,306,108
1995171,308,108
1995176,280,108
1995191,319,108
1995202,286,108
1995209,293,108
1995223,314,108
1995228,278,108
1995241,315,108
1995254,301,108
1995257,291,108
1995274,325,108
1995284,287,108
1995291,312,108
1995305,316,108
1995315,291,108
1995324,331,108
1995335,303,108
1995340,311,108
1995356,333,108
1995356,296,108
1995373,332,108
1995387,317,108
1995391,305,108
1995407,339,108
1995417,302,108
1995427,327,108
1995439,331,108
1995449,305,108
1995457,346,108
1995469,318,108
1995475,323,108
1995489,342,108
1995500,305,108
1995509,342,108
1995520,330,108
1995528,316,108
1995541,350,108
1995552,320,108
1995557,353,108
1995572,361,108
1995578,326,108
1995590,362,108
1995603,328,108
1995611,327,108
1995623,349,108
1995634,311,108
1995640,344,108
1995654,334,108
1995656,318,108
1995674,348,108
1995685,313,108
1995691,465,105
1995706,658,105
1995709,658,105
1995724,383,105
1995736,237,105
1995740,322,105
1995757,340,105
1995757,293,105
1995774,326,105
1995788,314,105
1995792,296,105
1995807,334,105
1995819,301,105
1995824,323,105
1995839,335,105
1995840,307,105
1995857,351,105
1995869,328,105
1995876,332,105
1995890,365,105
1995890,330,105
1995909,363,105
1995921,358,105
1995924,344,105
1995941,390,105
1995941,364,105
1995959,396,105
1995972,420,105
1995983,397,105
1995990,444,105
1995990,421,105
1996010,412,105
1996024,422,105
1996033,352,105
1996041,354,105
1996054,327,105
1996063,291,105
1996074,322,105
1996085,283,105
1996090,302,105
1996105,317,105
1996116,281,105
1996126,322,105
1996136,298,105
1996140,294,105
1996157,322,105
1996157,282,105
1996174,313,105
1996188,305,105
1996191,283,105
1996207,325,105
1996218,290,105
1996223,304,105
1996239,319,105
1996249,284,105
1996257,323,105
1996270,302,105
1996273,297,105
1996291,327,105
1996300,288,105
1996310,315,105
1996320,310,105
1996331,286,105
1996340,323,105
1996352,290,105
1996357,302,105
1996372,322,105
1996383,290,105
1996390,332,105
1996403,315,105
1996413,311,105
1996424,342,105
1996435,302,105
1996440,327,105
1996454,324,105
1996459,298,105
1996474,336,105
1996486,303,105
1996490,316,105
1996506,336,105
1996517,303,105
1996523,344,105
1996537,327,105
1996543,319,105
1996557,352,105
1996568,310,105
1996577,334,105
1996589,335,105
1996591,308,105
1996607,347,105
1996619,315,105
1996623,324,105
1996639,343,105
1996650,308,105
1996657,342,105
1996670,324,105
1996673,315,105
1996691,350,105
1996701,312,105
1996710,338,105
1996721,339,105
1996732,308,105
1996740,348,105
1996753,317,105
1996759,322,105
1996773,340,105
1996774,301,105
1996790,331,105
1996804,308,105
1996812,296,105
1996823,338,105
1996823,301,105
1996840,329,105
1996855,344,105
1996863,320,105
1996876,363,105
1996876,332,105
1996890,338,105
1996906,355,105
1996916,311,105
1996924,340,105
1996924,317,105
1996942,305,105
1996957,488,100
1996967,658,100
1996974,658,100
1996974,341,100
1996999,228,100
1997007,346,100
1997015,307,100
1997024,298,100
1997039,320,100
1997050,279,100
1997057,315,100
1997071,309,100
1997073,297,100
1997090,339,100
1997090,307,100
1997112,331,100
1997122,343,100
1997132,311,100
1997140,353,100
1997140,333,100
1997159,337,100
1997173,371,100
1997184,340,100
1997190,381,100
1997205,381,100
1997213,372,100
1997224,421,100
1997232,393,100
1997240,418,100
1997256,429,100
1997266,395,100
1997276,429,100
1997287,386,100
1997295,351,100
1997307,349,100
1997315,289,100
1997327,302,100
1997328,287,100
1997344,264,100
1997358,305,100
1997368,274,100
1997379,292,100
1997389,304,100
1997396,266,100
1997407,303,100
1997415,281,100
1997430,271,100
1997440,299,100
1997451,261,100
1997461,288,100
1997471,279,100
1997478,260,100
1997492,301,100
1997502,268,100
1997513,287,100
1997522,309,100
1997529,275,100
1997543,316,100
1997553,297,100
1997564,285,100
1997564,314,100
1997579,274,100
1997594,297,100
1997595,294,100
1997612,268,100
1997625,309,100
1997636,274,100
1997645,286,100
1997656,305,100
1997662,272,100
1997667,311,100
1997686,295,100
1997694,287,100
1997707,318,100
1997712,284,100
1997728,311,100
1997738,312,100
1997745,295,100
1997758,339,100
1997769,309,100
1997779,322,100
1997789,343,100
1997794,309,100
1997810,348,100
1997820,332,100
1997828,324,100
1997840,362,100
1997851,326,100
1997861,352,100
1997870,356,100
1997880,338,100
1997892,385,100
1997902,352,100
1997912,360,100
1997922,374,100
1997929,332,100
1997929,365,100
1997954,352,100
1997961,342,100
1997974,376,100
1997979,345,100
1997995,366,100
1997995,364,100
1998012,458,103
1998026,659,103
1998029,659,103
1998045,453,103
1998056,274,103
1998062,329,103
1998077,375,103
1998078,357,103
1998096,347,103
1998096,384,103
1998117,349,103
1998128,370,103
1998138,377,103
1998145,351,103
1998158,391,103
1998169,364,103
1998179,374,103
1998189,408,103
1998195,374,103
1998195,411,103
1998212,403,103
1998228,387,103
1998228,421,103
1998247,387,103
1998261,413,103
1998272,435,103
1998278,419,103
1998292,473,103
1998295,460,103
1998312,469,103
1998323,497,103
1998328,448,103
1998344,457,103
1998354,414,103
1998362,358,103
1998374,367,103
1998379,312,103
1998395,321,103
1998406,330,103
1998414,300,103
1998427,339,103
1998436,316,103
1998445,315,103
1998457,341,103
1998467,299,103
1998477,325,103
1998487,316,103
1998496,296,103
1998496,337,103
1998519,306,103
1998528,331,103
1998539,346,103
1998545,315,103
1998560,353,103
1998569,333,103
1998579,330,103
1998590,361,103
1998596,324,103
1998596,351,103
1998621,345,103
1998628,323,103
1998641,353,103
1998645,314,103
1998662,322,103
1998672,332,103
1998678,292,103
1998678,326,103
1998703,305,103
1998713,301,103
1998720,335,103
1998729,300,103
1998744,329,103
1998754,327,103
1998762,304,103
1998770,342,103
1998779,308,103
1998795,314,103
1998795,331,103
1998813,303,103
1998826,346,103
1998836,328,103
1998846,316,103
1998856,343,103
1998867,297,103
1998878,316,103
1998888,314,103
1998895,288,103
1998908,326,103
1998918,294,103
1998929,303,103
1998939,311,103
1998945,328,103
1998960,592,108
1998964,658,108
1998978,531,108
1998989,218,108
1999001,261,108
1999011,315,108
1999020,308,108
1999030,282,108
1999042,321,108
1999045,290,108
1999061,296,108
1999072,315,108
1999078,277,108
1999094,313,108
1999096,304,108
1999113,292,108
1999124,337,108
1999129,308,108
1999144,334,108
1999155,342,108
1999161,318,108
1999175,359,108
1999185,336,108
1999195,347,108
1999206,378,108
1999213,353,108
1999227,401,108
1999237,403,108
1999245,399,108
1999245,441,108
1999261,402,108
1999278,403,108
1999288,376,108
1999295,310,108
1999295,320,108
1999319,275,108
1999328,266,108
1999339,287,108
1999345,252,108
1999345,288,108
1999370,281,108
1999378,264,108
1999378,301,108
1999401,265,108
1999411,283,108
1999420,294,108
1999429,262,108
1999429,302,108
1999445,276,108
1999462,275,108
1999471,302,108
1999478,262,108
1999494,294,108
1999503,285,108
1999513,265,108
1999524,303,108
1999534,270,108
1999544,288,108
1999545,303,108
1999563,270,108
1999571,310,108
1999586,286,108
1999595,281,108
1999607,310,108
1999613,269,108
1999620,297,108
1999637,293,108
1999645,271,108
1999645,312,108
1999663,281,108
1999678,296,108
1999678,311,108
1999696,277,108
1999696,314,108
1999719,293,108
1999729,288,108
1999729,317,108
1999746,281,108
1999746,312,108
1999763,312,108
1999779,288,108
1999791,329,108
1999801,296,108
1999812,308,108
1999822,325,108
1999829,288,108
1999829,327,108
1999853,308,108
1999861,301,108
1999870,334,108
1999879,297,108
1999879,324,108
1999895,325,108
1999913,300,108
1999924,337,108
1999929,307,108
1999945,317,108
1999955,338,108
1999961,303,108
1999976,341,108
1999986,329,108
1999995,329,108
1999995,367,108
2000014,325,108
2000027,344,108
2000028,341,108
2000045,305,108
2000045,341,108
2000061,309,108
2000079,316,108
2000079,337,108
2000095,302,108
2000110,337,108
2000118,312,108
2000128,367,108
2000128,634,105
2000146,658,105
2000161,532,105
2000171,228,105
2000179,277,105
2000179,333,105
2000196,290,105
2000212,294,105
2000222,319,105
2000228,280,105
2000243,314,105
2000253,302,105
2000261,289,105
2000273,327,105
2000280,294,105
2000294,321,105
2000296,334,105
2000314,307,105
2000325,349,105
2000329,323,105
2000346,325,105
2000355,349,105
2000363,315,105
2000370,353,105
2000387,355,105
2000395,353,105
2000407,406,105
2000414,382,105
2000427,406,105
2000438,420,105
2000445,381,105
2000459,405,105
2000468,353,105
2000479,320,105
2000489,324,105
2000495,269,105
2000495,293,105
2000514,285,105
2000529,268,105
2000540,307,105
2000545,274,105
2000561,288,105
2000571,296,105
2000578,259,105
2000592,295,105
2000602,271,105
2000611,266,105
2000622,298,105
2000628,257,105
2000628,286,105
2000646,285,105
2000663,266,105
2000672,310,105
2000684,282,105
2000695,297,105
2000705,313,105
2000714,277,105
2000726,315,105
2000736,294,105
2000745,286,105
2000756,317,105
2000763,276,105
2000767,303,105
2000787,304,105
2000796,276,105
2000796,317,105
2000818,288,105
2000828,299,105
2000838,317,105
2000846,285,105
2000859,327,105
2000869,312,105
2000879,301,105
2000890,338,105
2000896,305,105
2000911,332,105
2000920,334,105
2000929,308,105
2000929,348,105
2000951,318,105
2000961,322,105
2000972,339,105
2000978,302,105
2000992,337,105
2001003,323,105
2001012,315,105
2001023,351,105
2001034,319,105
2001043,343,105
2001054,348,105
2001062,325,105
2001062,364,105
2001079,335,105
2001095,339,105
2001106,363,105
2001114,327,105
2001126,361,105
2001128,359,105
2001145,357,105
2001157,388,105
2001162,354,105
2001177,373,105
2001178,374,105
2001196,342,105
2001208,381,105
2001214,356,105
2001229,359,105
2001229,384,105
2001246,346,105
2001260,367,105
2001262,442,107
2001278,657,107
2001278,659,107
2001296,571,107
2001311,259,107
2001319,355,107
2001329,349,107
2001342,378,107
2001347,353,107
2001362,355,107
2001373,384,107
2001378,346,107
2001392,378,107
2001395,374,107
2001413,353,107
2001423,391,107
2001429,359,107
2001444,381,107
2001455,400,107
2001462,373,107
2001468,417,107
2001480,401,107
2001496,403,107
2001506,434,107
2001515,399,107
2001526,436,107
2001529,443,107
2001546,437,107
2001546,490,107
2001562,467,107
2001578,488,107
2001587,502,107
2001595,450,107
2001608,453,107
2001618,396,107
2001629,358,107
2001639,363,107
2001645,312,107
2001645,336,107
2001663,333,107
2001679,308,107
2001691,348,107
2001696,316,107
2001711,326,107
2001715,342,107
2001728,302,107
2001742,338,107
2001752,320,107
2001761,310,107
2001773,341,107
2001779,299,107
2001793,322,107
2001795,323,107
2001812,293,107
2001824,331,107
2001829,301,107
2001844,310,107
2001854,332,107
2001861,297,107
2001875,333,107
2001886,313,107
2001895,297,107
2001906,323,107
2001916,279,107
2001926,294,107
2001929,291,107
2001946,261,107
2001946,302,107
2001967,274,107
2001978,287,107
2001988,316,107
2001996,285,107
2002008,323,107
2002019,307,107
2002029,289,107
2002040,323,107
2002045,282,107
2002045,304,107
2002069,308,107
2002079,277,107
2002079,316,107
2002097,289,107
2002111,292,107
2002121,319,107
2002129,280,107
2002142,315,107
2002152,305,107
2002162,288,107
2002173,325,107
2002179,289,107
2002194,310,107
2002196,319,107
2002214,289,107
2002224,327,107
2002235,304,107
2002244,304,107
2002255,332,107
2002262,295,107
2002275,328,107
2002278,320,107
2002295,306,107
2002295,352,107
2002316,318,107
2002321,327,107
2002336,337,107
2002346,296,107
2002358,329,107
2002362,304,107
2002378,304,107
2002388,332,107
2002395,293,107
2002409,324,107
2002416,314,107
2002429,292,107
2002440,457,109
2002445,657,109
2002461,658,109
2002465,371,109
2002479,206,109
2002479,330,109
2002502,304,109
2002512,289,109
2002523,317,109
2002529,277,109
2002542,307,109
2002545,305,109
2002563,284,109
2002571,329,109
2002579,300,109
2002594,315,109
2002595,339,109
2002612,309,109
2002621,354,109
2002635,338,109
2002645,335,109
2002645,368,109
2002663,337,109
2002676,374,109
2002678,382,109
2002696,365,109
2002707,418,109
2002716,398,109
2002727,419,109
2002738,445,109
2002746,407,109
2002758,437,109
2002769,399,109
2002778,355,109
2002789,358,109
2002795,296,109
2002810,306,109
2002820,301,109
2002828,274,109
2002841,318,109
2002845,291,109
2002861,297,109
2002871,317,109
2002879,277,109
2002892,311,109
2002902,298,109
2002911,283,109
2002923,321,109
2002929,283,109
2002943,304,109
2002953,310,109
2002963,279,109
2002963,317,109
2002984,286,109
2002995,289,109
2003005,314,109
2003013,278,109
2003021,317,109
2003036,309,109
2003046,294,109
2003056,331,109
2003062,290,109
2003076,307,109
2003087,311,109
2003095,276,109
2003107,316,109
2003117,290,109
2003128,294,109
2003138,323,109
2003146,288,109
2003158,326,109
2003169,318,109
2003178,300,109
2003190,336,109
2003196,298,109
2003211,314,109
2003220,326,109
2003229,294,109
2003229,333,109
2003251,309,109
2003261,308,109
2003272,339,109
2003279,302,109
2003293,334,109
2003302,328,109
2003312,307,109
2003323,345,109
2003329,314,109
2003344,330,109
2003345,344,109
2003362,311,109
2003372,351,109
2003384,329,109
2003395,322,109
2003405,352,109
2003412,312,109
2003426,341,109
2003436,338,109
2003445,314,109
2003456,355,109
2003466,323,109
2003477,335,109
2003487,351,109
2003496,314,109
2003509,353,109
2003517,331,109
2003528,323,109
2003539,363,109
2003545,331,109
2003559,357,109
2003569,351,109
2003579,321,109
2003590,354,109
2003595,318,109
2003610,326,109
2003621,345,109
2003629,308,109
2003641,346,109
2003652,330,109
2003662,315,109
2003672,357,109
2003679,471,106
2003692,658,106
2003695,658,106
2003712,312,106
2003724,271,106
2003729,312,106
2003744,306,106
2003753,318,106
2003763,282,106
2003763,319,106
2003785,304,106
2003795,291,106
2003805,328,106
2003812,294,106
2003821,319,106
2003836,332,106
2003846,315,106
2003857,366,106
2003862,347,106
2003878,360,106
2003888,388,106
2003896,349,106
2003908,384,106
2003918,371,106
2003928,358,106
2003939,400,106
2003945,371,106
2003959,407,106
2003969,430,106
2003979,409,106
2003990,456,106
2004000,425,106
2004011,408,106
2004022,402,106
2004029,331,106
2004029,336,106
2004045,306,106
2004062,278,106
2004072,314,106
2004079,280,106
2004093,299,106
2004104,312,106
2004112,277,106
2004124,316,106
2004134,291,106
2004144,290,106
2004154,318,106
2004164,279,106
2004164,309,106
2004178,300,106
2004196,278,106
2004206,318,106
2004212,281,106
2004226,295,106
2004237,305,106
2004245,269,106
2004258,309,106
2004267,286,106
2004278,286,106
2004288,316,106
2004296,276,106
2004308,306,106
2004319,299,106
2004328,272,106
2004339,306,106
2004345,267,106
2004360,282,106
2004370,298,106
2004379,265,106
2004391,306,106
2004401,287,106
2004411,282,106
2004422,314,106
2004431,273,106
2004442,300,106
2004453,296,106
2004462,270,106
2004472,309,106
2004479,274,106
2004479,283,106
2004495,301,106
2004512,265,106
2004521,302,106
2004529,283,106
2004544,273,106
2004555,309,106
2004562,269,106
2004576,296,106
2004586,298,106
2004596,277,106
2004606,319,106
2004613,286,106
2004618,291,106
2004629,310,106
2004645,272,106
2004645,309,106
2004664,291,106
2004678,279,106
2004679,317,106
2004695,280,106
2004709,306,106
2004719,312,106
2004729,284,106
2004740,333,106
2004750,313,106
2004760,320,106
2004765,338,106
2004780,301,106
2004791,329,106
2004801,312,106
2004811,292,106
2004822,331,106
2004828,291,106
2004842,307,106
2004846,317,106
2004862,286,106
2004873,341,106
2004880,475,101
2004894,659,101
2004896,658,101
2004912,303,101
2004925,269,101
2004929,338,101
2004945,316,101
2004955,350,101
2004961,316,101
2004976,337,101
2004986,347,101
2004995,317,101
2005007,361,101
2005013,343,101
2005027,347,101
2005037,378,101
2005045,346,101
2005058,383,101
2005068,380,101
2005078,366,101
2005089,407,101
2005096,374,101
2005109,399,101
2005120,418,101
2005129,394,101
2005129,447,101
2005145,439,101
2005160,452,101
2005171,494,101
2005179,463,101
2005179,494,101
2005196,481,101
2005212,438,101
2005222,444,101
2005229,377,101
2005243,368,101
2005245,364,101
2005262,321,101
2005273,355,101
2005278,333,101
2005293,328,101
2005304,358,101
2005312,317,101
2005325,344,101
2005335,340,101
2005345,319,101
2005345,358,101
2005362,327,101
2005377,343,101
2005386,364,101
2005396,327,101
2005406,366,101
2005412,345,101
2005419,334,101
2005429,366,101
2005445,328,101
2005459,356,101
2005468,359,101
2005478,336,101
2005479,378,101
2005495,345,101
2005510,354,101
2005520,369,101
2005530,327,101
2005530,360,101
2005546,339,101
2005561,326,101
2005571,359,101
2005579,320,101
2005592,347,101
2005602,355,101
2005612,330,101
2005623,371,101
2005629,339,101
2005643,344,101
2005654,363,101
2005662,325,101
2005674,358,101
2005679,342,101
2005695,327,101
2005705,363,101
2005712,325,101
2005721,345,101
2005735,347,101
2005746,313,101
2005756,351,101
2005763,319,101
2005769,320,101
2005786,345,101
2005796,303,101
2005796,336,101
2005818,334,101
2005828,321,101
2005829,352,101
2005846,311,101
2005846,322,101
2005863,321,101
2005879,288,101
2005880,327,101
2005897,299,101
2005910,300,101
2005920,327,101
2005929,288,101
2005941,309,101
2005950,365,101
2005962,580,102
2005972,658,102
2005979,472,102
2005979,185,102
2005995,286,102
2006012,276,102
2006021,307,102
2006030,281,102
2006044,279,102
2006046,308,102
2006063,268,102
2006073,297,102
2006085,295,102
2006095,276,102
2006106,317,102
2006114,289,102
2006126,315,102
2006136,336,102
2006145,306,102
2006156,351,102
2006165,333,102
2006177,332,102
2006183,365,102
2006195,329,102
2006207,367,102
2006218,378,102
2006228,367,102
2006238,419,102
2006246,398,102
2006259,416,102
2006270,429,102
2006279,377,102
2006290,384,102
2006300,329,102
2006310,292,102
2006321,305,102
2006329,252,102
2006342,277,102
2006345,280,102
2006362,260,102
2006365,306,102
2006380,276,102
2006380,289,102
2006403,308,102
2006412,270,102
2006423,309,102
2006434,291,102
2006444,280,102
2006453,312,102
2006462,270,102
2006475,295,102
2006485,296,102
2006496,266,102
2006505,308,102
2006514,278,102
2006525,288,102
2006529,314,102
2006545,278,102
2006557,317,102
2006563,302,102
2006571,289,102
2006587,322,102
2006596,280,102
2006596,300,102
2006618,297,102
2006629,263,102
2006639,303,102
2006645,277,102
2006659,287,102
2006670,318,102
2006679,286,102
2006679,329,102
2006700,320,102
2006710,304,102
2006721,337,102
2006729,293,102
2006741,310,102
2006745,311,102
2006762,276,102
2006768,315,102
2006778,290,102
2006792,295,102
2006796,323,102
2006813,288,102
2006823,330,102
2006834,325,102
2006844,313,102
2006854,354,102
2006861,317,102
2006875,338,102
2006885,347,102
2006895,311,102
2006906,349,102
2006915,320,102
2006926,317,102
2006937,347,102
2006946,310,102
2006957,344,102
2006967,340,102
2006978,324,102
2006989,365,102
2006995,329,102
2007009,347,102
2007013,360,102
2007029,322,102
2007040,360,102
2007045,346,102
2007060,348,102
2007064,375,102
2007078,330,102
2007091,356,102
2007096,343,102
2007111,318,102
2007121,357,102
2007128,324,102
2007128,340,102
2007147,355,102
2007161,320,102
2007173,353,102
2007179,345,102
2007193,507,101
2007204,659,101
2007212,657,101
2007224,308,101
2007229,278,101
2007244,320,101
2007255,348,101
2007264,308,101
2007274,320,101
2007286,338,101
2007295,301,101
2007296,336,101
2007312,314,101
2007327,305,101
2007337,340,101
2007345,304,101
2007357,340,101
2007366,351,101
2007378,334,101
2007388,380,101
2007396,355,101
2007409,370,101
2007419,393,101
2007429,356,101
2007429,398,101
2007446,387,101
2007446,383,101
2007470,431,101
2007479,403,101
2007491,439,101
2007501,444,101
2007511,413,101
2007522,432,101
2007529,367,101
2007543,339,101
2007552,337,101
2007562,284,101
2007573,315,101
2007579,304,101
2007579,296,101
2007595,336,101
2007612,298,101
2007624,321,101
2007634,326,101
2007645,298,101
2007655,336,101
2007662,308,101
2007677,313,101
2007686,336,101
2007695,292,101
2007707,325,101
2007717,311,101
2007727,292,101
2007738,329,101
2007746,291,101
2007758,312,101
2007768,322,101
2007778,291,101
2007788,333,101
2007796,304,101
2007809,302,101
2007820,325,101
2007828,282,101
2007839,312,101
2007845,304,101
2007861,286,101
2007870,326,101
2007879,294,101
2007891,315,101
2007901,327,101
2007912,294,101
2007922,333,101
2007929,308,101
2007943,305,101
2007953,331,101
2007962,290,101
2007974,323,101
2007978,318,101
2007994,296,101
2008003,336,101
2008012,300,101
2008024,317,101
2008035,330,101
2008045,297,101
2008046,336,101
2008062,315,101
2008076,311,101
2008086,343,101
2008096,304,101
2008096,335,101
2008112,330,101
2008128,306,101
2008138,344,101
2008146,307,101
2008158,319,101
2008168,336,101
2008179,297,101
2008190,338,101
2008195,318,101
2008209,312,101
2008215,347,101
2008228,317,101
2008239,347,101
2008246,340,101
2008260,312,101
2008271,345,101
2008279,301,101
2008291,309,101
2008302,328,101
2008312,289,101
2008322,325,101
2008329,307,101
2008343,295,101
2008349,320,101
2008363,365,101
2008374,636,101
2008384,658,101
2008394,415,101
2008405,219,101
2008412,276,101
2008425,295,101
2008436,300,101
2008445,260,101
2008456,295,101
2008465,276,101
2008465,265,101
2008487,300,101
2008495,263,101
2008507,291,101
2008517,299,101
2008528,278,101
2008537,324,101
2008545,297,101
2008558,309,101
2008569,337,101
2008578,302,101
2008589,345,101
2008595,335,101
2008609,332,101
2008620,377,101
2008629,350,101
2008641,387,101
2008651,407,101
2008661,383,101
2008672,424,101
2008679,390,101
2008683,377,101
2008702,371,101
2008712,297,101
2008722,298,101
2008729,268,101
2008743,243,101
2008754,282,101
2008762,250,101
2008774,278,101
2008785,291,101
2008795,260,101
2008805,300,101
2008815,271,101
2008825,270,101
2008835,295,101
2008845,253,101
2008856,291,101
2008862,281,101
2008876,264,101
2008886,307,101
2008895,275,101
2008895,298,101
2008913,314,101
2008923,284,101
2008929,328,101
2008946,302,101
2008959,301,101
2008965,326,101
2008979,291,101
2008990,325,101
2008995,323,101
2009010,302,101
2009020,343,101
2009028,313,101
2009041,327,101
2009051,341,101
2009062,307,101
2009072,350,101
2009079,332,101
2009093,328,101
2009103,361,101
2009112,324,101
2009123,357,101
2009129,356,101
2009144,336,101
2009154,375,101
2009162,341,101
2009174,354,101
2009179,369,101
2009195,335,101
2009206,372,101
2009213,359,101
2009226,363,101
2009229,397,101
2009246,360,101
2009257,387,101
2009263,375,101
2009277,348,101
2009287,385,101
2009295,351,101
2009308,362,101
2009312,382,101
2009328,347,101
2009330,375,101
2009346,387,101
2009359,587,90
2009362,660,90
2009378,656,90
2009378,288,90
2009395,308,90
2009411,336,90
2009420,368,90
2009428,333,90
2009441,344,90
2009452,369,90
2009462,339,90
2009473,379,90
2009478,369,90
2009493,362,90
2009503,400,90
2009512,361,90
2009512,384,90
2009529,387,90
2009544,358,90
2009554,396,90
2009562,367,90
2009575,373,90
2009585,401,90
2009595,372,90
2009606,421,90
2009612,423,90
2009626,425,90
2009634,472,90
2009645,441,90
2009657,466,90
2009667,466,100
2009677,418,100
2009679,422,100
2009696,359,100
2009708,335,100
2009713,338,100
2009729,290,100
2009739,316,100
2009745,303,100
2009759,289,100
2009767,324,100
2009778,281,100
2009790,299,100
2009801,304,100
2009811,269,100
2009822,309,100
2009829,282,100
2009842,286,100
2009853,316,100
2009862,284,100
2009872,319,100
2009879,312,100
2009893,295,100
2009903,333,100
2009912,298,100
2009924,321,100
2009934,333,100
2009944,299,100
2009955,341,100
2009962,314,100
2009975,308,100
2009979,331,100
2009995,285,100
2009995,310,100
2010014,301,100
2010026,282,100
2010028,321,100
2010047,290,100
2010057,312,100
2010067,330,100
2010078,299,100
2010078,340,100
2010095,315,100
2010108,308,100
2010119,338,100
2010129,298,100
2010139,327,100
2010145,322,100
2010160,300,100
2010170,340,100
2010180,319,100
2010180,337,100
2010201,347,100
2010211,312,100
2010221,346,100
2010229,319,100
2010229,310,100
2010244,338,100
2010262,297,100
2010263,320,100
2010282,318,100
2010293,290,100
2010295,321,100
2010312,386,100
2010324,653,94
2010330,659,94
2010345,404,94
2010346,229,94
2010362,300,94
2010376,302,94
2010379,322,94
2010395,281,94
2010406,306,94
2010416,305,94
2010427,277,94
2010437,318,94
2010446,289,94
2010458,302,94
2010468,324,94
2010478,295,94
2010488,340,94
2010497,332,94
2010497,327,94
2010513,360,94
2010528,324,94
2010540,353,94
2010545,362,94
2010560,343,94
2010570,394,94
2010579,378,94
2010579,400,94
2010595,434,94
2010612,406,94
2010622,443,94
2010629,421,104
2010642,384,104
2010653,380,104
2010662,309,104
2010673,306,104
2010679,296,104
2010694,262,104
2010704,304,104
2010714,281,104
2010725,292,104
2010729,321,104
2010745,285,104
2010755,319,104
2010762,306,104
2010776,291,104
2010786,324,104
2010795,285,104
2010807,303,104
2010812,307,104
2010828,277,104
2010837,315,104
2010845,289,104
2010845,289,104
2010863,318,104
2010878,279,104
2010889,315,104
2010896,307,104
2010910,289,104
2010915,325,104
2010929,292,104
2010940,316,104
2010946,340,104
2010946,324,104
2010971,376,104
2010979,360,104
2010979,361,104
2011002,382,104
2011012,326,104
2011021,337,104
2011030,318,104
2011030,286,104
2011045,313,104
2011062,276,104
2011073,294,104
2011083,313,104
2011094,285,104
2011105,327,104
2011111,303,104
2011124,293,104
2011129,312,104
2011145,264,104
2011156,289,104
2011162,281,104
2011176,262,104
2011179,306,104
2011196,280,104
2011207,304,104
2011211,326,104
2011226,297,104
2011226,335,104
2011242,314,104
2011258,305,104
2011268,329,104
2011279,284,104
2011289,309,104
2011300,307,104
2011305,287,104
2011320,330,104
2011330,303,104
2011339,317,104
2011351,335,104
2011356,299,104
2011371,333,104
2011373,309,104
2011389,300,104
2011403,330,104
2011412,293,104
2011423,326,104
2011433,331,104
2011439,312,104
2011454,357,104
2011456,335,104
2011473,348,104
2011484,360,104
2011494,320,104
2011505,351,104
2011516,328,104
2011522,320,104
2011536,354,104
2011546,318,104
2011556,343,104
2011556,342,104
2011572,308,104
2011587,331,104
2011590,382,104
2011606,630,93
2011618,658,93
2011627,389,93
2011638,212,93
2011639,289,93
2011656,290,93
2011669,315,93
2011673,278,93
2011689,302,93
2011700,303,93
2011706,275,93
2011720,314,93
2011731,282,93
2011740,288,93
2011751,309,93
2011762,274,93
2011772,314,93
2011781,306,93
2011789,303,93
2011802,348,93
2011813,316,93
2011822,344,93
2011826,354,93
2011841,327,93
2011854,366,93
2011864,345,93
2011872,359,93
2011872,394,93
2011895,366,93
2011905,403,93
2011915,390,93
2011926,359,93
2011936,363,93
2011946,291,93
2011956,283,93
2011967,278,93
2011976,240,93
2011988,278,93
2011997,252,93
2012005,258,93
2012017,284,93
2012028,245,93
2012039,275,93
2012049,265,93
2012055,244,93
2012070,279,93
2012079,243,93
2012089,266,93
2012100,278,93
2012106,252,93
2012106,296,93
2012131,276,93
2012138,282,93
2012151,311,93
2012156,269,93
2012172,300,93
2012183,291,93
2012189,272,93
2012189,312,93
2012213,279,93
2012222,297,93
2012226,311,93
2012239,278,93
2012254,316,93
2012257,295,93
2012272,288,93
2012285,314,93
2012289,278,93
2012305,308,93
2012316,306,93
2012326,291,93
2012336,338,93
2012347,316,93
2012356,334,93
2012356,355,93
2012373,325,93
2012388,361,93
2012389,342,93
2012407,338,93
2012419,373,93
2012429,336,93
2012439,364,93
2012449,364,93
2012456,339,93
2012456,376,93
2012480,344,93
2012490,358,93
2012500,378,93
2012511,345,93
2012521,383,93
2012531,377,93
2012539,382,93
2012552,413,91
2012562,370,91
2012572,395,91
2012583,386,91
2012589,355,91
2012589,392,91
2012613,361,91
2012622,369,91
2012626,389,91
2012639,357,91
2012639,383,91
2012664,394,91
2012674,591,91
2012685,660,91
2012689,658,91
2012705,343,91
2012716,320,91
2012723,359,91
2012737,389,91
2012740,353,91
2012756,361,91
2012767,384,91
2012778,349,91
2012788,386,91
2012799,374,91
2012806,364,91
2012819,397,91
2012829,362,91
2012839,391,91
2012850,402,91
2012855,382,91
2012870,423,90
2012880,393,90
2012889,398,90
2012892,421,90
2012907,388,90
2012921,433,90
2012927,436,90
2012939,439,90
2012952,494,90
2012962,474,90
2012973,505,90
2012983,514,90
2012989,463,90
2013003,460,90
2013014,387,90
2013022,354,90
2013035,351,90
2013045,299,90
2013055,326,90
2013064,320,90
2013073,310,90
2013086,351,90
2013095,319,90
2013106,337,90
2013116,341,90
2013123,303,90
2013137,333,90
2013147,298,90
2013155,292,90
2013168,316,90
2013173,277,90
2013189,311,90
2013198,310,90
2013205,295,90
2013219,334,90
2013229,299,90
2013239,317,90
2013250,327,90
2013256,292,90
2013271,327,90
2013281,298,90
2013289,289,90
2013301,312,90
2013311,268,90
2013321,293,90
2013327,286,90
2013338,268,90
2013352,306,90
2013355,274,90
2013373,294,90
2013383,309,90
2013389,279,90
2013404,319,90
2013406,300,90
2013422,290,90
2013435,314,90
2013445,274,90
2013455,301,90
2013466,297,90
2013474,278,90
2013486,317,90
2013496,288,90
2013505,302,90
2013517,320,90
2013523,286,90
2013528,327,90
2013539,307,90
2013556,305,90
2013569,352,90
2013572,319,90
2013588,339,90
2013599,334,90
2013606,303,90
2013619,335,90
2013630,302,90
2013640,313,90
2013650,330,90
2013655,296,90
2013671,336,90
2013681,315,90
2013689,311,90
2013702,495,92
2013706,658,92
2013722,658,92
2013733,345,92
2013740,223,92
2013753,343,92
2013756,307,92
2013772,311,92
2013784,337,92
2013789,304,92
2013805,343,92
2013815,327,92
2013822,314,92
2013835,345,92
2013845,307,92
2013855,334,92
2013865,342,92
2013873,322,92
2013873,369,92
2013897,344,92
2013906,353,92
2013915,376,92
2013922,342,92
2013938,381,92
2013948,374,92
2013956,370,92
2013969,418,92
2013973,398,92
2013988,434,92
2014000,449,92
2014006,420,92
2014019,447,92
2014030,391,92
2014039,357,92
2014050,345,92
2014056,280,92
2014071,294,92
2014081,273,92
2014090,254,92
2014090,290,92
2014106,256,92
2014122,279,92
2014133,287,92
2014139,258,92
2014153,300,92
2014163,273,92
2014172,275,92
2014184,299,92
2014194,260,92
2014205,289,92
2014215,277,92
2014222,260,92
2014235,298,92
2014245,265,92
2014255,287,92
2014256,300,92
2014274,265,92
2014287,305,92
2014289,279,92
2014307,275,92
2014317,299,92
2014322,258,92
2014338,290,92
2014349,281,92
2014356,266,92
2014369,307,92
2014375,273,92
2014389,290,92
2014399,302,92
2014405,270,92
2014420,307,92
2014429,284,92
2014439,280,92
2014450,308,92
2014456,270,92
2014471,298,92
2014482,293,92
2014489,273,92
2014503,312,92
2014505,277,92
2014523,292,92
2014529,304,92
2014539,268,92
2014554,305,92
2014562,282,92
2014572,278,92
2014584,310,92
2014589,275,92
2014605,304,92
2014615,303,92
2014623,278,92
2014635,318,92
2014646,284,92
2014656,293,92
2014656,308,92
2014672,269,92
2014687,305,92
2014697,282,92
2014707,275,92
2014718,305,92
2014722,267,92
2014739,297,92
2014749,296,92
2014756,273,92
2014756,311,92
2014773,280,92
2014789,291,92
2014800,308,92
2014806,276,92
2014821,328,92
2014831,307,92
2014839,295,92
2014850,325,92
2014862,278,92
2014872,303,92
2014882,303,92
2014889,276,92
2014889,316,92
2014913,286,92
2014922,295,92
2014933,301,92
2014939,320,92
2014939,590,91
2014957,659,91
2014972,529,91
2014972,217,91
2014995,255,91
2015005,312,91
2015015,304,91
2015023,276,91
2015036,314,91
2015040,285,91
2015056,294,91
2015066,318,91
2015075,282,91
2015088,326,91
2015098,317,91
2015106,313,91
2015113,357,91
2015122,325,91
2015139,350,91
2015149,361,91
2015156,334,91
2015163,381,91
2015181,362,91
2015189,374,91
2015201,406,91
2015206,384,91
2015221,431,91
2015230,434,91
2015239,430,91
2015252,470,101
2015262,430,101
2015272,433,101
2015282,409,101
2015289,349,101
2015303,363,101
2015313,317,101
2015323,305,101
2015334,327,101
2015340,291,101
2015340,324,101
2015364,316,101
2015373,298,101
2015385,339,101
2015396,306,101
2015405,323,101
2015417,335,101
2015422,304,101
2015437,347,101
2015447,325,101
2015455,322,101
2015468,347,101
2015478,311,101
2015488,349,101
2015498,341,101
2015505,326,101
2015518,364,101
2015529,327,101
2015539,342,101
2015550,353,101
2015555,321,101
2015570,359,101
2015580,337,101
2015589,333,101
2015589,367,101
2015605,329,101
2015621,360,101
2015632,356,101
2015639,334,101
2015653,372,101
2015662,342,101
2015673,359,101
2015683,376,101
2015690,344,101
2015704,384,101
2015714,364,101
2015724,358,101
2015734,388,101
2015744,350,101
2015755,377,101
2015766,375,101
2015772,353,101
2015786,390,101
2015795,361,101
2015806,372,101
2015806,390,101
2015822,367,101
2015837,410,97
2015839,377,97
2015855,367,97
2015868,388,97
2015872,342,97
2015888,369,97
2015898,365,97
2015906,342,97
2015919,381,97
2015928,350,97
2015938,355,97
2015950,365,97
2015956,437,97
2015971,659,97
2015981,659,97
2015989,475,97
2016001,268,97
2016005,319,97
2016021,355,97
2016032,346,97
2016039,316,97
2016052,353,97
2016063,321,97
2016073,329,97
2016084,350,97
2016089,318,97
2016104,356,97
2016114,342,97
2016122,339,97
2016135,381,97
2016145,353,97
2016155,382,97
2016165,387,97
2016173,361,97
2016173,401,102
2016196,372,102
2016205,380,102
2016217,409,102
2016223,385,102
2016238,432,102
2016238,435,102
2016256,433,102
2016269,476,102
2016276,432,102
2016288,426,102
2016291,391,102
2016306,323,102
2016320,332,102
2016325,284,102
2016340,277,102
2016350,302,102
2016360,269,102
2016370,310,102
2016381,308,102
2016391,297,102
2016402,335,102
2016412,297,102
2016422,313,102
2016431,316,102
2016439,282,102
2016453,318,102
2016457,293,102
2016472,295,102
2016483,321,102
2016489,286,102
2016504,317,102
2016514,313,102
2016522,293,102
2016535,329,102
2016545,297,102
2016556,316,102
2016565,327,102
2016572,294,102
2016586,328,102
2016597,300,102
2016606,295,102
2016618,320,102
2016623,280,102
2016638,312,102
2016648,304,102
2016656,286,102
2016668,324,102
2016673,288,102
2016689,302,102
2016700,313,102
2016706,279,102
2016719,318,102
2016730,296,102
2016739,294,102
2016751,328,102
2016756,290,102
2016772,321,102
2016781,312,102
2016788,289,102
2016802,324,102
2016812,288,102
2016822,300,102
2016833,314,102
2016839,280,102
2016839,318,102
2016856,298,102
2016873,295,102
2016884,325,102
2016890,285,102
2016904,313,102
2016915,310,102
2016922,288,102
2016935,324,102
2016946,290,102
2016956,302,102
2016966,317,102
2016976,285,102
2016976,323,102
2016989,306,102
2017006,297,102
2017017,329,102
2017028,304,102
2017037,340,102
2017039,325,102
2017056,300,102
2017069,334,102
2017073,297,102
2017089,308,102
2017099,324,102
2017106,287,102
2017120,326,102
2017129,309,102
2017139,295,102
2017150,324,102
2017156,416,92
2017171,658,92
2017182,658,92
2017189,323,92
2017202,251,92
2017212,299,92
2017222,306,92
2017232,319,92
2017239,282,92
2017254,317,92
2017264,297,92
2017273,285,92
2017285,317,92
2017294,279,92
2017305,306,92
2017315,314,92
2017322,293,92
2017336,341,92
2017347,317,92
2017356,329,92
2017366,350,92
2017373,316,92
2017373,352,92
2017389,343,92
2017406,341,92
2017418,387,92
2017428,363,92
2017438,403,92
2017448,423,92
2017456,404,92
2017469,447,102
2017480,414,102
2017489,399,102
2017500,391,102
2017506,320,102
2017521,328,102
2017530,297,102
2017539,274,102
2017551,305,102
2017561,271,102
2017572,294,102
2017582,303,102
2017589,273,102
2017589,312,102
2017613,284,102
2017622,288,102
2017633,309,102
2017639,273,102
2017654,305,102
2017664,294,102
2017672,277,102
2017684,315,102
2017695,280,102
2017705,303,102
2017716,310,102
2017723,280,102
2017731,320,102
2017746,294,102
2017755,295,102
2017767,319,102
2017773,280,102
2017787,311,102
2017789,300,102
2017806,281,102
2017806,320,102
2017823,285,102
2017839,305,102
2017849,316,102
2017855,286,102
2017869,325,102
2017873,301,102
2017888,300,102
2017900,326,102
2017911,286,102
2017920,315,102
2017931,307,102
2017939,289,102
2017952,327,102
2017962,292,102
2017972,311,102
2017983,326,102
2017989,292,102
2017989,328,102
2018014,306,102
2018023,302,102
2018031,332,102
2018040,293,102
2018044,323,102
2018065,320,102
2018072,295,102
2018085,330,102
2018095,296,102
2018105,306,102
2018115,321,102
2018123,285,102
2018132,322,102
2018139,300,102
2018156,294,102
2018165,327,102
2018173,289,102
2018188,319,102
2018198,315,102
2018208,292,102
2018219,329,102
2018223,294,102
2018240,305,102
2018240,324,102
2018256,290,102
2018270,328,102
2018272,308,102
2018289,300,102
2018301,331,102
2018311,296,102
2018320,333,102
2018331,337,102
2018339,308,102
2018352,345,102
2018362,309,102
2018373,313,102
2018383,327,102
2018389,291,102
2018403,328,102
2018413,309,102
2018423,299,102
2018432,329,102
2018440,283,102
2018455,412,101
2018464,657,101
2018472,658,101
2018485,417,101
2018495,196,101
2018505,294,101
2018516,322,101
2018522,277,101
2018537,320,101
2018548,306,101
2018556,299,101
2018568,336,101
2018573,298,101
2018573,326,101
2018599,333,101
2018606,308,101
2018615,353,101
2018630,331,101
2018639,343,101
2018649,374,101
2018656,345,101
2018670,389,101
2018673,382,101
2018689,375,101
2018701,416,101
2018711,384,101
2018722,418,101
2018732,437,101
2018738,422,101
2018752,473,101
2018763,447,101
2018772,447,101
2018783,456,101
2018789,388,101
2018803,385,101
2018814,343,101
2018822,308,101
2018832,332,101
2018838,293,101
2018853,315,101
2018863,328,101
2018869,302,101
2018884,342,101
2018895,315,101
2018899,314,101
2018914,337,101
2018927,296,101
2018932,332,101
2018947,323,101
2018958,308,101
2018965,349,101
2018978,314,101
2018981,334,101
2018998,346,101
2018998,316,101
2019015,360,101
2019030,340,101
2019032,345,101
2019048,375,101
2019061,338,101
2019065,367,101
2019080,352,101
2019091,327,101
2019098,362,101
2019112,324,101
2019122,340,101
2019132,354,101
2019142,326,101
2019148,369,101
2019163,351,101
2019166,355,101
2019181,388,101
2019194,351,101
2019200,381,101
