Timestamp,ECGValue,BPM
1635043,302,103
1635069,309,103
1635076,284,103
1635089,324,103
1635100,305,103
1635109,310,103
1635121,331,103
1635126,294,103
1635141,324,103
1635151,312,103
1635159,297,103
1635171,323,103
1635182,288,103
1635192,308,103
1635202,314,103
1635210,289,103
1635222,326,103
1635233,305,103
1635243,310,103
1635254,332,103
1635260,299,103
1635274,326,103
1635277,314,103
1635293,297,103
1635305,328,103
1635310,298,103
1635326,311,103
1635336,317,103
1635343,292,103
1635357,325,103
1635366,301,103
1635377,303,103
1635387,323,103
1635393,293,103
1635408,323,103
1635418,313,103
1635426,299,103
1635438,329,103
1635443,295,103
1635459,313,103
1635461,322,103
1635476,295,103
1635490,327,103
1635493,320,103
1635510,326,103
1635521,343,103
1635527,312,103
1635541,333,103
1635551,320,103
1635560,306,103
1635572,333,103
1635583,299,103
1635593,314,103
1635602,320,103
1635609,285,103
1635623,343,103
1635627,521,102
1635644,658,102
1635655,648,102
1635660,214,102
1635675,271,102
1635677,315,102
1635694,294,102
1635705,322,102
1635715,295,102
1635726,312,102
1635737,322,102
1635744,294,102
1635757,326,102
1635767,308,102
1635777,314,102
1635788,343,102
1635794,317,102
1635794,352,102
1635818,347,102
1635826,338,102
1635838,372,102
1635849,346,102
1635859,366,102
1635870,381,102
1635877,361,102
1635877,402,102
1635900,393,102
1635910,404,102
1635921,435,102
1635927,408,102
1635942,435,102
1635952,418,102
1635960,377,102
1635972,374,102
1635976,310,102
1635992,300,102
1636003,290,102
1636013,253,102
1636024,289,102
1636027,271,102
1636043,275,102
1636054,303,102
1636065,274,102
1636074,299,102
1636085,293,102
1636092,276,102
1636106,306,102
1636116,278,102
1636126,297,102
1636137,308,102
1636143,282,102
1636157,319,102
1636167,301,102
1636176,306,102
1636188,335,102
1636193,309,102
1636208,340,102
1636218,338,102
1636227,325,102
1636240,358,102
1636243,326,102
1636260,339,102
1636264,341,102
1636276,315,102
1636290,346,102
1636294,329,102
1636310,332,102
1636321,359,102
1636327,332,102
1636327,364,102
1636352,363,102
1636360,354,102
1636368,389,102
1636382,366,102
1636392,381,102
1636404,389,102
1636410,365,102
1636418,395,102
1636427,376,102
1636443,373,102
1636455,399,102
1636460,380,102
1636469,415,109
1636476,401,109
1636493,385,109
1636506,409,109
1636510,375,109
1636526,385,109
1636537,392,109
1636543,361,109
1636557,392,109
1636567,370,109
1636576,366,109
1636588,379,109
1636592,432,109
1636609,658,109
1636620,660,109
1636626,569,109
1636639,273,109
1636649,326,109
1636660,363,109
1636671,360,109
1636676,329,109
1636691,361,109
1636693,340,109
1636710,335,109
1636721,355,109
1636731,325,109
1636742,355,109
1636743,354,109
1636761,339,109
1636770,375,109
1636777,354,109
1636792,373,109
1636804,385,109
1636810,360,109
1636824,395,109
1636827,378,109
1636844,381,109
1636846,414,107
1636861,393,107
1636869,430,107
1636886,435,107
1636894,429,107
1636894,467,107
1636917,432,107
1636926,423,107
1636937,400,107
1636943,341,107
1636958,343,107
1636968,301,107
1636977,286,107
1636989,304,107
1636999,268,107
1637010,298,107
1637019,296,107
1637027,282,107
1637027,318,107
1637050,290,107
1637060,303,107
1637071,313,107
1637077,281,107
1637077,311,107
1637101,291,107
1637110,289,107
1637122,312,107
1637132,280,107
1637142,302,107
1637153,296,107
1637160,279,107
1637174,312,107
1637177,282,107
1637192,297,107
1637192,309,107
1637210,282,107
1637224,314,107
1637235,293,107
1637243,292,107
1637255,315,107
1637266,279,107
1637276,303,107
1637286,299,107
1637293,279,107
1637307,310,107
1637317,281,107
1637326,294,107
1637338,308,107
1637343,281,107
1637358,312,107
1637368,293,107
1637376,290,107
1637389,312,107
1637397,280,107
1637409,306,107
1637420,300,107
1637426,281,107
1637441,315,107
1637450,286,107
1637460,299,107
1637470,310,107
1637476,281,107
1637492,315,107
1637502,297,107
1637509,297,107
1637523,323,107
1637527,290,107
1637543,315,107
1637543,311,107
1637560,293,107
1637574,324,107
1637584,295,107
1637593,305,107
1637604,318,107
1637610,292,107
1637624,322,107
1637637,307,107
1637643,318,107
1637643,350,107
1637661,307,107
1637677,331,107
1637687,323,107
1637695,298,107
1637706,330,107
1637718,298,107
1637726,309,107
1637738,320,107
1637743,289,107
1637759,314,107
1637768,300,107
1637777,438,108
1637777,659,108
1637800,657,108
1637810,318,108
1637820,235,108
1637826,291,108
1637840,318,108
1637851,284,108
1637860,297,108
1637871,311,108
1637876,281,108
1637892,312,108
1637902,291,108
1637912,287,108
1637923,314,108
1637933,288,108
1637943,319,108
1637954,321,108
1637960,309,108
1637974,343,108
1637979,317,108
1637993,332,108
1637993,348,108
1638010,324,108
1638026,361,108
1638036,352,108
1638043,363,108
1638056,405,108
1638066,387,108
1638077,420,108
1638087,422,107
1638093,396,107
1638093,409,107
1638118,351,107
1638127,334,107
1638127,326,107
1638145,284,107
1638159,311,107
1638169,293,107
1638177,290,107
1638189,318,107
1638195,284,107
1638210,306,107
1638220,302,107
1638230,280,107
1638241,313,107
1638244,285,107
1638260,297,107
1638272,310,107
1638282,280,107
1638292,313,107
1638302,297,107
1638310,289,107
1638324,316,107
1638334,284,107
1638344,309,107
1638354,309,107
1638360,289,107
1638374,320,107
1638377,292,107
1638393,303,107
1638406,316,107
1638415,285,107
1638426,317,107
1638436,304,107
1638443,302,107
1638456,332,107
1638467,301,107
1638476,322,107
1638487,322,107
1638493,300,107
1638507,332,107
1638510,301,107
1638527,308,107
1638539,322,107
1638549,288,107
1638559,319,107
1638569,302,107
1638577,296,107
1638590,325,107
1638600,293,107
1638609,317,107
1638621,319,107
1638626,300,107
1638642,334,107
1638651,307,107
1638660,316,107
1638672,334,107
1638682,303,107
1638693,331,107
1638703,313,107
1638711,307,107
1638711,329,107
1638734,295,107
1638744,314,107
1638744,315,107
1638760,295,107
1638775,330,107
1638777,304,107
1638793,314,107
1638806,330,107
1638815,302,107
1638826,334,107
1638837,318,107
1638843,311,107
1638857,339,107
1638867,305,107
1638877,328,107
1638877,329,107
1638893,318,107
1638908,358,107
1638919,320,107
1638927,327,107
1638940,335,107
1638944,298,107
1638960,328,107
1638969,312,107
1638976,304,107
1638990,331,107
1639000,298,107
1639010,316,107
1639021,321,107
1639027,436,101
1639042,658,101
1639052,658,101
1639060,329,101
1639073,239,101
1639083,287,101
1639092,319,101
1639103,300,101
1639109,292,101
1639124,318,101
1639127,288,101
1639143,309,101
1639155,307,101
1639160,287,101
1639169,328,101
1639185,305,101
1639193,317,101
1639206,341,101
1639216,318,101
1639225,354,101
1639237,348,101
1639243,343,101
1639257,376,101
1639268,350,101
1639277,378,101
1639277,387,101
1639294,376,101
1639294,421,101
1639310,409,101
1639327,428,101
1639339,448,103
1639350,417,103
1639359,434,103
1639370,391,103
1639381,352,103
1639391,353,103
1639401,301,103
1639410,311,103
1639421,306,103
1639432,281,103
1639442,318,103
1639452,294,103
1639459,305,103
1639473,325,103
1639483,296,103
1639494,327,103
1639494,315,103
1639510,304,103
1639525,335,103
1639535,306,103
1639543,324,103
1639555,326,103
1639561,311,103
1639566,349,103
1639578,326,103
1639592,337,103
1639607,359,103
1639611,329,103
1639626,360,103
1639637,349,103
1639644,338,103
1639658,368,103
1639667,333,103
1639676,351,103
1639688,355,103
1639698,334,103
1639709,364,103
1639719,341,103
1639727,346,103
1639727,369,103
1639743,340,103
1639760,372,103
1639770,364,103
1639776,357,103
1639791,385,103
1639802,352,103
1639810,368,103
1639822,367,103
1639827,342,103
1639843,375,103
1639843,351,103
1639861,354,103
1639873,374,103
1639876,344,103
1639893,375,103
1639893,361,103
1639909,354,103
1639925,396,103
1639935,367,103
1639943,382,103
1639955,384,103
1639959,353,103
1639976,380,103
1639986,354,103
1639993,357,103
1640007,372,103
1640016,339,103
1640026,365,103
1640038,347,103
1640043,329,103
1640058,472,106
1640061,658,106
1640078,659,106
1640088,451,106
1640094,213,106
1640110,339,106
1640120,327,106
1640128,322,106
1640128,342,106
1640151,308,106
1640160,333,106
1640169,316,106
1640176,300,106
1640191,331,106
1640202,305,106
1640210,328,106
1640222,338,106
1640232,320,106
1640243,357,106
1640253,340,106
1640262,349,106
1640274,372,106
1640283,341,106
1640293,369,106
1640304,362,106
1640310,356,106
1640324,397,106
1640329,379,106
1640343,409,106
1640356,426,106
1640366,406,106
1640376,432,106
1640387,388,106
1640393,355,106
1640407,342,106
1640418,284,106
1640427,292,106
1640438,271,106
1640448,256,106
1640457,290,106
1640468,265,106
1640476,289,106
1640488,299,106
1640493,273,106
1640510,306,106
1640520,282,106
1640528,280,106
1640540,299,106
1640551,267,106
1640559,298,106
1640572,293,106
1640577,278,106
1640592,308,106
1640602,277,106
1640610,295,106
1640622,303,106
1640633,279,106
1640643,315,106
1640653,294,106
1640661,296,106
1640666,316,106
1640678,282,106
1640694,310,106
1640694,301,106
1640710,285,106
1640725,311,106
1640735,278,106
1640743,296,106
1640743,304,106
1640766,281,106
1640777,318,106
1640777,299,106
1640793,302,106
1640808,325,106
1640810,294,106
1640827,323,106
1640829,314,106
1640843,298,106
1640858,330,106
1640869,297,106
1640877,312,106
1640890,319,106
1640900,293,106
1640910,327,106
1640920,308,106
1640929,308,106
1640941,332,106
1640952,302,106
1640960,328,106
1640972,322,106
1640982,307,106
1640992,337,106
1641003,307,106
1641010,322,106
1641010,329,106
1641034,304,106
1641043,339,106
1641044,316,106
1641060,317,106
1641074,353,106
1641084,321,106
1641093,338,106
1641105,330,106
1641115,307,106
1641126,334,106
1641129,302,106
1641143,317,106
1641157,326,106
1641167,300,106
1641177,335,106
1641187,308,106
1641198,316,106
1641208,494,107
1641213,658,107
1641226,657,107
1641238,303,107
1641243,225,107
1641259,327,107
1641269,288,107
1641277,298,107
1641277,309,107
1641300,284,107
1641310,320,107
1641321,301,107
1641330,297,107
1641330,324,107
1641343,294,107
1641362,325,107
1641372,322,107
1641382,311,107
1641392,348,107
1641402,321,107
1641409,338,107
1641423,352,107
1641430,328,107
1641443,366,107
1641443,355,107
1641460,364,107
1641469,400,107
1641485,382,107
1641493,422,107
1641505,422,107
1641515,407,107
1641526,432,107
1641530,382,107
1641543,366,107
1641557,349,107
1641567,299,107
1641576,318,107
1641587,292,107
1641593,288,107
1641593,313,107
1641610,282,107
1641628,310,107
1641639,305,107
1641649,285,107
1641660,315,107
1641670,282,107
1641676,294,107
1641690,307,107
1641700,276,107
1641710,310,107
1641721,293,107
1641731,289,107
1641742,315,107
1641752,283,107
1641760,310,107
1641772,309,107
1641777,290,107
1641792,322,107
1641792,292,107
1641810,303,107
1641818,314,107
1641830,285,107
1641844,318,107
1641855,301,107
1641863,297,107
1641875,324,107
1641885,291,107
1641893,318,107
1641905,314,107
1641910,297,107
1641926,332,107
1641937,306,107
1641944,319,107
1641957,333,107
1641967,302,107
1641977,333,107
1641977,313,107
1641993,302,107
1642009,329,107
1642019,297,107
1642026,326,107
1642039,328,107
1642050,310,107
1642060,348,107
1642069,325,107
1642076,335,107
1642091,345,107
1642101,313,107
1642111,344,107
1642111,324,107
1642130,317,107
1642143,342,107
1642152,309,107
1642160,332,107
1642173,331,107
1642183,307,107
1642194,338,107
1642205,311,107
1642210,321,107
1642225,334,107
1642234,305,107
1642244,337,107
1642255,320,107
1642264,314,107
1642275,340,107
1642276,309,107
1642294,328,107
1642294,328,107
1642310,318,107
1642326,348,107
1642337,308,107
1642343,314,107
1642357,323,107
1642368,286,107
1642377,319,107
1642388,304,107
1642398,298,107
1642409,327,107
1642420,295,107
1642427,308,107
1642440,332,107
1642450,492,100
1642461,659,100
1642461,647,100
1642477,226,100
1642490,257,100
1642502,281,100
1642510,304,100
1642521,290,100
1642531,284,100
1642542,317,100
1642553,286,100
1642560,306,100
1642573,306,100
1642584,286,100
1642594,324,100
1642604,306,100
1642610,320,100
1642610,342,100
1642631,318,100
1642643,354,100
1642655,342,100
1642661,338,100
1642668,369,100
1642686,340,100
1642694,366,100
1642706,374,100
1642716,364,100
1642726,410,100
1642737,397,100
1642743,415,100
1642758,437,101
1642768,402,101
1642777,415,101
1642777,373,101
1642794,335,101
1642809,337,101
1642820,284,101
1642826,295,101
1642839,291,101
1642850,268,101
1642861,307,101
1642871,286,101
1642876,296,101
1642891,318,101
1642901,289,101
1642909,320,101
1642922,308,101
1642932,300,101
1642932,327,101
1642943,295,101
1642960,315,101
1642974,317,101
1642976,296,101
1642993,333,101
1643004,311,101
1643010,319,101
1643018,338,101
1643035,309,101
1643044,340,101
1643056,326,101
1643060,313,101
1643076,338,101
1643077,302,101
1643093,322,101
1643107,325,101
1643118,303,101
1643126,337,101
1643137,316,101
1643142,325,101
1643158,349,101
1643169,324,101
1643177,354,101
1643189,345,101
1643199,333,101
1643209,362,101
1643220,329,101
1643226,351,101
1643241,355,101
1643250,333,101
1643259,368,101
1643271,347,101
1643277,353,101
1643277,376,101
1643293,345,101
1643310,373,101
1643323,361,101
1643333,360,101
1643343,397,101
1643353,358,101
1643360,375,101
1643373,375,101
1643384,346,101
1643394,378,101
1643405,353,101
1643415,356,101
1643426,373,101
1643436,339,101
1643443,367,101
1643456,343,101
1643466,408,105
1643476,658,105
1643477,659,105
1643494,569,105
1643507,250,105
1643511,307,105
1643527,368,105
1643532,336,105
1643543,337,105
1643559,356,105
1643569,321,105
1643577,346,105
1643577,329,105
1643593,317,105
1643609,348,105
1643619,321,105
1643626,344,105
1643641,359,105
1643644,344,105
1643660,387,105
1643672,370,105
1643677,376,105
1643692,397,105
1643703,364,105
1643710,392,105
1643717,390,105
1643733,385,105
1643733,426,105
1643744,406,105
1643760,435,105
1643770,451,105
1643776,424,105
1643793,440,105
1643793,385,105
1643815,355,105
1643825,347,105
1643833,289,105
1643844,302,105
1643857,286,105
1643860,270,105
1643876,303,105
1643887,281,105
1643897,300,105
1643908,309,105
1643918,284,105
1643926,318,105
1643939,296,105
1643949,296,105
1643959,316,105
1643969,282,105
1643976,309,105
1643990,301,105
1644000,282,105
1644010,314,105
1644020,283,105
1644027,300,105
1644041,312,105
1644052,287,105
1644060,324,105
1644072,302,105
1644078,303,105
1644093,322,105
1644103,291,105
1644110,316,105
1644123,303,105
1644133,284,105
1644143,315,105
1644154,284,105
1644164,302,105
1644175,314,105
1644185,291,105
1644193,326,105
1644205,305,105
1644216,305,105
1644226,325,105
1644236,290,105
1644243,315,105
1644257,306,105
1644266,291,105
1644277,323,105
1644277,295,105
1644293,312,105
1644309,324,105
1644318,297,105
1644326,331,105
1644338,309,105
1644349,307,105
1644359,328,105
1644370,296,105
1644377,324,105
1644390,318,105
1644394,301,105
1644410,336,105
1644420,307,105
1644427,323,105
1644434,332,105
1644451,301,105
1644459,336,105
1644471,313,105
1644477,312,105
1644493,347,105
1644503,325,105
1644510,341,105
1644523,336,105
1644534,314,105
1644543,340,105
1644554,308,105
1644565,317,105
1644574,326,105
1644576,297,105
1644593,332,105
1644605,311,105
1644616,300,105
1644627,423,107
1644637,635,107
1644644,658,107
1644657,450,107
1644667,199,107
1644677,321,107
1644688,298,107
1644693,299,107
1644708,309,107
1644712,283,107
1644726,319,107
1644740,299,107
1644743,295,107
1644759,321,107
1644770,293,107
1644778,321,107
1644791,322,107
1644799,308,107
1644810,346,107
1644822,322,107
1644832,338,107
1644842,352,107
1644844,327,107
1644860,369,107
1644872,357,107
1644881,364,107
1644893,399,107
1644894,379,107
1644910,418,107
1644920,424,107
1644934,408,107
1644943,440,107
1644956,396,107
1644960,380,107
1644975,362,107
1644976,305,107
1644993,317,107
1645006,287,107
1645016,279,107
1645026,305,107
1645037,273,107
1645043,304,107
1645058,304,107
1645067,286,107
1645077,320,107
1645077,291,107
1645093,300,107
1645109,312,107
1645119,281,107
1645126,312,107
1645140,294,107
1645150,290,107
1645160,316,107
1645172,282,107
1645177,308,107
1645191,307,107
1645201,287,107
1645210,322,107
1645213,293,107
1645226,302,107
1645242,315,107
1645253,284,107
1645260,320,107
1645273,303,107
1645283,296,107
1645293,324,107
1645304,291,107
1645314,318,107
1645325,316,107
1645334,300,107
1645343,334,107
1645355,307,107
1645361,318,107
1645376,332,107
1645385,301,107
1645393,333,107
1645393,314,107
1645417,305,107
1645427,332,107
1645437,298,107
1645443,325,107
1645458,327,107
1645467,309,107
1645476,344,107
1645488,317,107
1645499,327,107
1645509,343,107
1645519,312,107
1645526,343,107
1645540,326,107
1645543,317,107
1645560,345,107
1645569,311,107
1645576,336,107
1645576,338,107
1645602,316,107
1645610,349,107
1645622,320,107
1645632,328,107
1645642,344,107
1645653,311,107
1645660,344,107
1645673,328,107
1645684,321,107
1645693,349,107
1645704,314,107
1645709,338,107
1645725,337,107
1645734,318,107
1645743,350,107
1645755,322,107
1645766,339,107
1645775,365,107
1645787,322,107
1645793,352,107
1645807,332,107
1645811,316,107
1645827,344,107
1645838,308,107
1645848,331,107
1645858,333,107
1645869,310,107
1645876,340,107
1645889,303,107
1645899,393,107
1645909,647,102
1645920,658,102
1645926,498,102
1645940,213,102
1645944,291,102
1645960,332,102
1645970,287,102
1645976,308,102
1645991,309,102
1646002,286,102
1646009,319,102
1646023,292,102
1646033,297,102
1646043,317,102
1646053,288,102
1646060,328,102
1646064,320,102
1646085,316,102
1646093,346,102
1646105,313,102
1646111,337,102
1646117,342,102
1646135,325,102
1646143,364,102
1646156,343,102
1646167,358,102
1646177,390,102
1646186,373,102
1646193,415,102
1646207,409,102
1646218,397,102
1646226,410,102
1646238,350,102
1646248,340,102
1646259,313,102
1646269,268,102
1646276,290,102
1646289,257,102
1646300,264,102
1646310,285,102
1646320,258,102
1646326,294,102
1646340,285,102
1646351,277,102
1646359,306,102
1646372,276,102
1646376,299,102
1646392,302,102
1646402,278,102
1646410,309,102
1646422,280,102
1646433,286,102
1646443,307,102
1646454,277,102
1646460,313,102
1646474,303,102
1646484,295,102
1646493,327,102
1646505,295,102
1646510,315,102
1646525,317,102
1646536,290,102
1646544,320,102
1646556,293,102
1646560,296,102
1646576,315,102
1646577,287,102
1646594,318,102
1646594,307,102
1646618,299,102
1646627,331,102
1646638,299,102
1646644,321,102
1646659,329,102
1646669,304,102
1646677,340,102
1646690,313,102
1646693,317,102
1646709,335,102
1646715,304,102
1646727,335,102
1646740,325,102
1646751,313,102
1646760,343,102
1646772,315,102
1646782,338,102
1646793,342,102
1646802,317,102
1646813,358,102
1646823,347,102
1646833,347,102
1646843,366,102
1646854,330,102
1646864,353,102
1646874,340,102
1646877,328,102
1646893,362,102
1646906,330,102
1646912,350,102
1646919,359,102
1646936,330,102
1646944,390,102
1646956,569,104
1646967,659,104
1646977,658,104
1646977,291,104
1646993,304,104
1647008,360,104
1647017,345,104
1647026,370,104
1647039,342,104
1647049,360,104
1647060,365,104
1647065,338,104
1647076,372,104
1647090,350,104
1647100,357,104
1647110,383,104
1647121,356,104
1647127,395,104
1647141,395,104
1647151,388,104
1647159,424,104
1647172,393,104
1647183,410,104
1647193,415,104
1647203,392,104
1647210,431,104
1647210,416,104
1647227,432,104
1647244,467,104
1647254,446,104
1647261,479,104
1647275,460,104
1647285,418,104
1647294,414,104
1647306,349,104
1647316,340,104
1647326,331,104
1647336,294,104
1647343,327,104
1647343,302,104
1647367,308,104
1647377,335,104
1647377,306,104
1647393,337,104
1647408,329,104
1647419,313,104
1647426,341,104
1647439,310,104
1647449,326,104
1647459,333,104
1647470,304,104
1647477,336,104
1647477,311,104
1647493,310,104
1647510,332,104
1647521,301,104
1647527,330,104
1647541,326,104
1647552,310,104
1647561,340,104
1647566,307,104
1647577,319,104
1647593,323,104
1647603,292,104
1647610,320,104
1647623,296,104
1647634,294,104
1647643,316,104
1647655,284,104
1647664,314,104
1647676,309,104
1647685,297,104
1647693,331,104
1647706,300,104
1647716,312,104
1647726,320,104
1647737,292,104
1647743,326,104
1647757,305,104
1647767,299,104
1647776,321,104
1647789,291,104
1647799,318,104
1647809,311,104
1647819,296,104
1647826,328,104
1647839,301,104
1647849,312,104
1647860,324,104
1647860,311,104
1647877,347,104
1647891,319,104
1647894,317,104
1647910,335,104
1647920,296,104
1647926,320,104
1647942,313,104
1647953,294,104
1647960,324,104
1647973,295,104
1647977,303,104
1647993,315,104
1648004,422,108
1648010,658,108
1648024,658,108
1648027,312,108
1648043,238,108
1648055,285,108
1648065,313,108
1648075,298,108
1648086,280,108
1648093,314,108
1648106,282,108
1648116,295,108
1648126,303,108
1648137,274,108
1648143,314,108
1648157,298,108
1648168,304,108
1648177,336,108
1648189,310,108
1648193,343,108
1648209,340,108
1648219,325,108
1648227,362,108
1648240,335,108
1648243,352,108
1648260,373,108
1648271,356,108
1648276,406,108
1648291,401,108
1648301,409,108
1648311,438,108
1648323,399,108
1648326,402,108
1648343,365,108
1648344,313,108
1648360,319,108
1648373,270,108
1648376,274,108
1648393,286,108
1648404,260,108
1648410,298,108
1648416,284,108
1648427,283,108
1648443,312,108
1648456,279,108
1648460,304,108
1648476,298,108
1648486,276,108
1648493,308,108
1648507,276,108
1648517,289,108
1648526,303,108
1648538,274,108
1648544,310,108
1648558,292,108
1648561,288,108
1648576,316,108
1648589,284,108
1648599,309,108
1648610,305,108
1648620,285,108
1648627,318,108
1648637,288,108
1648643,299,108
1648661,312,108
1648671,282,108
1648681,314,108
1648693,298,108
1648701,297,108
1648710,325,108
1648722,292,108
1648726,318,108
1648743,316,108
1648743,296,108
1648760,330,108
1648774,301,108
1648784,311,108
1648793,324,108
1648793,294,108
1648810,329,108
1648824,313,108
1648835,309,108
1648843,337,108
1648856,303,108
1648860,329,108
1648876,328,108
1648887,306,108
1648893,341,108
1648907,314,108
1648912,325,108
1648927,341,108
1648938,311,108
1648943,344,108
1648958,328,108
1648969,322,108
1648976,349,108
1648989,316,108
1649000,341,108
1649009,341,108
1649019,321,108
1649027,354,108
1649038,325,108
1649043,334,108
1649060,350,108
1649071,320,108
1649076,352,108
1649092,336,108
1649102,329,108
1649110,358,108
1649123,324,108
1649133,348,108
1649143,350,108
1649154,327,108
1649163,361,108
1649173,345,108
1649184,361,108
1649193,364,108
1649205,331,108
1649215,358,108
1649225,337,108
1649235,327,108
1649242,353,108
1649256,322,108
1649267,343,108
1649276,342,108
1649277,316,108
1649293,344,108
1649308,419,102
1649317,656,102
1649327,659,102
1649338,452,102
1649343,251,102
1649343,323,102
1649370,322,102
1649377,339,102
1649377,307,102
1649394,328,102
1649410,328,102
1649420,304,102
1649426,335,102
1649441,308,102
1649451,315,102
1649460,339,102
1649465,313,102
1649482,351,102
1649492,341,102
1649493,334,102
1649510,366,102
1649523,335,102
1649533,357,102
1649543,365,102
1649554,350,102
1649560,397,102
1649574,382,102
1649585,403,102
1649593,435,102
1649605,410,102
1649615,444,102
1649626,424,102
1649636,398,102
1649643,399,102
1649657,335,102
1649667,333,102
1649676,318,102
1649687,283,102
1649693,314,102
1649708,285,102
1649718,295,102
1649727,313,102
1649738,280,102
1649750,312,102
1649759,295,102
1649769,285,102
1649776,313,102
1649790,279,102
1649801,300,102
1649810,302,102
1649821,281,102
1649827,317,102
1649842,291,102
1649852,297,102
1649859,316,102
1649872,282,102
1649882,313,102
1649893,300,102
1649903,287,102
1649910,317,102
1649923,284,102
1649933,303,102
1649943,307,102
1649955,281,102
1649960,316,102
1649975,289,102
1649984,292,102
1649993,312,102
1650005,277,102
1650010,307,102
1650026,295,102
1650036,282,102
1650043,311,102
1650056,278,102
1650067,296,102
1650076,299,102
1650087,270,102
1650093,304,102
1650093,278,102
1650110,282,102
1650126,300,102
1650139,269,102
1650143,300,102
1650159,290,102
1650168,280,102
1650177,310,102
1650191,278,102
1650194,297,102
1650210,302,102
1650221,275,102
1650227,309,102
1650241,283,102
1650253,290,102
1650260,313,102
1650273,284,102
1650277,319,102
1650292,309,102
1650303,298,102
1650310,331,102
1650323,298,102
1650327,317,102
1650343,322,102
1650355,298,102
1650363,333,102
1650375,309,102
1650376,315,102
1650393,335,102
1650406,303,102
1650411,341,102
1650426,341,102
1650436,322,102
1650443,347,102
1650457,310,102
1650467,322,102
1650477,326,102
1650477,298,102
1650494,335,102
1650500,310,102
1650511,313,102
1650526,329,102
1650539,284,102
1650550,394,102
1650559,636,101
1650570,658,101
1650577,475,101
1650577,182,101
1650601,294,101
1650611,321,101
1650621,289,101
1650632,324,101
1650642,306,101
1650652,313,101
1650660,333,101
1650672,297,101
1650683,328,101
1650693,324,101
1650704,318,101
1650712,355,101
1650724,330,101
1650734,354,101
1650744,368,101
1650755,347,101
1650763,383,101
1650776,369,101
1650786,379,101
1650794,409,101
1650806,384,101
1650810,426,101
1650826,431,101
1650837,428,101
1650843,467,101
1650858,441,101
1650864,456,101
1650877,445,101
1650877,388,101
1650899,389,101
1650909,336,101
1650919,315,101
1650927,326,101
1650940,291,101
1650950,323,101
1650960,321,101
1650966,316,101
1650976,354,101
1650991,327,101
1650993,346,101
1651011,353,101
1651019,323,101
1651027,355,101
1651040,332,101
1651053,330,101
1651060,354,101
1651073,324,101
1651084,356,101
1651093,349,101
1651104,338,101
1651110,374,101
1651125,348,101
1651127,368,101
1651143,376,101
1651156,346,101
1651165,375,101
1651176,348,101
1651185,340,101
1651193,358,101
1651207,321,101
1651217,349,101
1651227,343,101
1651227,332,101
1651244,368,101
1651259,339,101
1651268,360,101
1651276,371,101
1651289,346,101
1651299,379,101
1651309,356,101
1651319,351,101
1651327,371,101
1651340,336,101
1651350,362,101
1651359,357,101
1651371,339,101
1651377,372,101
1651392,338,101
1651393,352,101
1651410,359,101
1651421,331,101
1651427,360,101
1651442,336,101
1651443,343,101
1651460,376,101
1651474,336,101
1651484,361,101
1651493,350,101
1651504,326,101
1651510,355,101
1651525,320,101
1651527,331,101
1651543,340,101
1651555,309,101
1651566,339,101
1651576,309,101
1651587,388,101
1651593,654,105
1651607,659,105
1651613,509,105
1651626,215,105
1651638,283,105
1651644,335,105
1651644,293,105
1651669,306,105
1651676,315,105
1651689,286,105
1651699,317,105
1651709,296,105
1651720,297,105
1651727,325,105
1651727,296,105
1651744,329,105
1651760,329,105
1651771,316,105
1651781,352,105
1651792,325,105
1651802,344,105
1651810,358,105
1651823,334,105
1651833,374,105
1651843,363,105
1651853,374,105
1651860,411,105
1651874,389,105
1651884,424,105
1651893,425,105
1651905,403,105
1651910,416,105
1651926,355,105
1651927,336,105
1651944,321,105
1651956,271,105
1651966,291,105
1651976,265,105
1651986,259,105
1651994,287,105
1651994,256,105
1652010,288,105
1652027,283,105
1652039,268,105
1652049,308,105
1652058,280,105
1652069,292,105
1652077,303,105
1652089,272,105
1652100,302,105
1652110,279,105
1652121,273,105
1652127,299,105
1652137,268,105
1652142,295,105
1652158,293,105
1652168,277,105
1652173,311,105
1652189,282,105
1652202,297,105
1652213,307,105
1652220,279,105
1652220,313,105
1652242,289,105
1652252,284,105
1652265,309,105
1652269,277,105
1652284,303,105
1652295,302,105
1652302,283,105
1652315,318,105
1652325,289,105
1652335,304,105
1652346,318,105
1652352,287,105
1652367,319,105
1652376,299,105
1652385,297,105
1652397,323,105
1652408,291,105
1652418,321,105
1652428,318,105
1652436,299,105
1652449,334,105
1652453,301,105
1652469,311,105
1652479,322,105
1652486,294,105
1652500,327,105
1652510,311,105
1652518,309,105
1652531,336,105
1652541,305,105
1652552,329,105
1652562,326,105
1652568,302,105
1652582,334,105
1652593,303,105
1652603,315,105
1652613,330,105
1652622,302,105
1652634,338,105
1652643,321,105
1652652,317,105
1652664,345,105
1652675,313,105
1652685,333,105
1652695,337,105
1652703,329,105
1652715,354,105
1652726,324,105
1652735,332,105
1652747,340,105
1652752,307,105
1652768,340,105
1652769,322,105
1652786,316,105
1652786,342,105
1652802,307,105
1652818,322,105
1652829,384,105
1652836,588,102
1652849,659,102
1652860,568,102
1652870,222,102
1652879,311,102
1652885,306,102
1652885,324,102
1652905,306,102
1652919,301,102
1652919,331,102
1652941,298,102
1652952,322,102
1652952,321,102
1652969,303,102
1652978,344,102
1652993,320,102
1653002,334,102
1653013,352,102
1653019,326,102
1653034,366,102
1653045,351,102
1653053,347,102
1653065,379,102
1653075,353,102
1653086,385,102
1653095,394,102
1653102,384,102
1653116,434,102
1653127,418,102
1653135,436,102
1653147,453,102
1653157,413,102
1653167,419,102
1653177,371,102
1653185,335,102
1653198,338,102
1653209,289,102
1653218,304,102
1653229,304,102
1653235,285,102
1653249,323,102
1653260,297,102
1653269,308,102
1653269,322,102
1653285,290,102
1653301,319,102
1653307,301,102
1653318,295,102
1653331,321,102
1653341,288,102
1653352,312,102
1653363,312,102
1653369,290,102
1653374,323,102
1653387,293,102
1653403,302,102
1653413,319,102
1653424,286,102
1653435,318,102
1653442,300,102
1653452,292,102
1653465,319,102
1653475,285,102
1653486,307,102
1653486,310,102
1653502,287,102
1653517,324,102
1653526,297,102
1653537,309,102
1653547,326,102
1653552,293,102
1653568,327,102
1653574,312,102
1653586,304,102
1653599,330,102
1653603,296,102
1653619,316,102
1653629,317,102
1653636,294,102
1653650,330,102
1653660,304,102
1653669,315,102
1653680,332,102
1653691,300,102
1653701,333,102
1653702,318,102
1653718,310,102
1653732,336,102
1653743,302,102
1653751,322,102
1653763,322,102
1653768,298,102
1653783,332,102
1653793,303,102
1653803,311,102
1653814,327,102
1653823,295,102
1653834,324,102
1653845,307,102
1653852,299,102
1653866,331,102
1653869,298,102
1653886,320,102
1653896,329,102
1653902,314,102
1653902,340,102
1653927,309,102
1653936,311,102
1653943,320,102
1653958,286,102
1653968,317,102
1653968,304,102
1653985,294,102
1653999,321,102
1654002,287,102
1654018,297,102
1654030,373,102
1654036,593,99
1654043,658,99
1654061,449,99
1654071,179,99
1654081,287,99
1654091,275,99
1654102,302,99
1654112,291,99
1654119,280,99
1654132,309,99
1654143,275,99
1654152,295,99
1654163,298,99
1654169,281,99
1654183,316,99
1654194,298,99
1654202,313,99
1654214,341,99
1654224,313,99
1654234,351,99
1654245,344,99
1654252,336,99
1654266,369,99
1654276,340,99
1654286,371,99
1654297,382,99
1654302,371,99
1654302,418,99
1654328,404,99
1654335,417,99
1654343,435,99
1654358,390,99
1654368,392,99
1654379,347,99
1654386,308,99
1654399,315,99
1654409,268,99
1654418,285,99
1654430,285,99
1654440,266,99
1654451,308,99
1654461,287,99
1654471,301,99
1654471,320,99
1654485,289,99
1654502,319,99
1654511,304,99
1654519,294,99
1654533,325,99
1654543,292,99
1654551,314,99
1654564,319,99
1654573,299,99
1654585,340,99
1654594,320,99
1654602,330,99
1654615,352,99
1654620,320,99
1654635,349,99
1654646,334,99
1654652,320,99
1654666,342,99
1654676,307,99
1654685,330,99
1654697,338,99
1654702,320,99
1654718,361,99
1654727,344,99
1654735,358,99
1654748,382,99
1654758,356,99
1654769,389,99
1654779,377,99
1654785,368,99
1654799,395,99
1654809,361,99
1654818,384,99
1654830,384,99
1654840,361,99
1654851,406,108
1654860,395,108
1654870,398,108
1654870,411,108
1654885,374,108
1654902,395,108
1654913,377,108
1654918,362,108
1654933,389,108
1654943,354,108
1654952,372,108
1654962,375,108
1654969,341,108
1654969,406,108
1654995,588,108
1655002,659,108
1655016,658,108
1655026,286,108
1655035,319,108
1655046,368,108
1655052,352,108
1655066,378,108
1655077,346,108
1655085,364,108
1655097,361,108
1655108,330,108
1655118,360,108
1655128,336,108
1655136,343,108
1655149,366,108
1655159,339,108
1655168,378,108
1655179,373,108
1655185,368,108
1655200,401,107
1655211,369,107
1655219,392,107
1655231,394,107
1655236,372,107
1655252,412,107
1655262,397,107
1655269,416,107
1655282,447,107
1655286,422,107
1655303,453,107
1655313,425,107
1655319,382,107
1655333,377,107
1655344,314,107
1655353,308,107
1655363,293,107
1655369,259,107
1655385,293,107
1655386,267,107
1655403,273,107
1655412,297,107
1655419,270,107
1655435,305,107
1655444,296,107
1655453,285,107
1655466,315,107
1655476,279,107
1655487,298,107
1655498,301,107
1655507,276,107
1655518,309,107
1655528,283,107
1655536,288,107
1655548,305,107
1655559,275,107
1655569,308,107
1655580,299,107
1655585,290,107
1655601,318,107
1655611,287,107
1655620,305,107
1655631,312,107
1655641,285,107
1655651,314,107
1655662,286,107
1655672,290,107
1655682,311,107
1655692,276,107
1655702,308,107
1655713,298,107
1655719,289,107
1655733,320,107
1655744,287,107
1655752,306,107
1655765,309,107
1655769,282,107
1655785,315,107
1655789,289,107
1655803,296,107
1655803,314,107
1655819,287,107
1655836,318,107
1655846,306,107
1655853,294,107
1655853,324,107
1655869,291,107
1655885,310,107
1655898,314,107
1655902,290,107
1655919,325,107
1655929,300,107
1655935,306,107
1655949,329,107
1655952,293,107
1655968,322,107
1655978,323,107
1655985,317,107
1655985,337,107
1656011,303,107
1656019,317,107
1656031,319,107
1656042,292,107
1656052,326,107
1656053,299,107
1656069,302,107
1656082,323,107
1656093,281,107
1656101,319,107
1656113,458,108
1656119,657,108
1656134,657,108
1656144,292,108
1656152,236,108
1656165,313,108
1656175,280,108
1656185,307,108
1656195,286,108
1656201,290,108
1656217,309,108
1656219,277,108
1656235,308,108
1656247,299,108
1656253,291,108
1656253,327,108
1656278,301,108
1656285,327,108
1656298,337,108
1656303,314,108
1656319,352,108
1656329,331,108
1656335,339,108
1656349,362,108
1656352,336,108
1656369,378,108
1656376,380,108
1656391,383,108
1656401,427,108
1656412,405,108
1656419,430,108
1656432,428,108
1656442,382,108
1656452,387,108
1656462,331,108
1656468,309,108
1656483,310,108
1656487,267,108
1656502,293,108
1656514,286,108
1656523,276,108
1656534,311,108
1656544,282,108
1656552,304,108
1656565,310,108
1656576,283,108
1656586,318,108
1656596,291,108
1656602,291,108
1656617,309,108
1656627,277,108
1656636,307,108
1656647,298,108
1656658,288,108
1656668,319,108
1656669,286,108
1656685,303,108
1656699,307,108
1656702,278,108
1656719,313,108
1656729,285,108
1656735,291,108
1656750,311,108
1656753,281,108
1656770,312,108
1656781,303,108
1656785,292,108
1656801,324,108
1656812,292,108
1656819,310,108
1656832,316,108
1656843,288,108
1656852,321,108
1656863,295,108
1656873,297,108
1656873,320,108
1656894,285,108
1656902,315,108
1656914,306,108
1656918,291,108
1656934,323,108
1656945,292,108
1656952,311,108
1656966,318,108
1656976,294,108
1656985,328,108
1656997,306,108
1657002,310,108
1657017,330,108
1657020,297,108
1657035,324,108
1657047,316,108
1657058,303,108
1657068,330,108
1657078,296,108
1657085,315,108
1657099,321,108
1657109,295,108
1657118,328,108
1657130,303,108
1657136,318,108
1657146,343,108
1657152,301,108
1657168,332,108
1657181,318,108
1657192,302,108
1657202,331,108
1657212,300,108
1657218,321,108
1657233,327,108
1657243,300,108
1657252,325,108
1657263,314,108
1657274,484,105
1657284,659,105
1657295,656,105
1657302,272,105
1657315,239,105
1657319,292,105
1657335,318,105
1657335,284,105
1657352,304,105
1657366,313,105
1657372,287,105
1657386,322,105
1657397,297,105
1657402,305,105
1657402,334,105
1657427,306,105
1657435,342,105
1657448,341,105
1657453,331,105
1657468,367,105
1657479,341,105
1657485,361,105
1657499,376,105
1657501,357,105
1657520,395,105
1657531,382,105
1657536,394,105
1657551,427,105
1657552,404,105
1657568,442,105
1657581,437,105
1657591,415,105
1657602,423,105
1657602,358,105
1657618,344,105
1657633,325,105
1657643,279,105
1657652,302,105
1657664,278,105
1657673,282,105
1657684,309,105
1657686,280,105
1657703,310,105
1657713,302,105
1657718,290,105
1657736,320,105
1657745,289,105
1657752,306,105
1657767,316,105
1657776,292,105
1657785,328,105
1657797,305,105
1657802,312,105
1657818,336,105
1657829,307,105
1657835,342,105
1657849,339,105
1657859,326,105
1657869,359,105
1657869,329,105
1657885,343,105
1657900,349,105
1657911,322,105
1657919,356,105
1657930,334,105
1657936,337,105
1657947,363,105
1657953,332,105
1657968,365,105
1657982,362,105
1657993,354,105
1658002,389,105
1658012,360,105
1658018,379,105
1658033,384,105
1658044,357,105
1658052,389,105
1658064,363,105
1658075,367,105
1658085,387,105
1658095,353,105
1658103,390,105
1658116,395,105
1658126,375,105
1658135,403,113
1658146,368,113
1658153,375,113
1658153,380,113
1658168,349,113
1658185,381,113
1658198,357,113
1658208,357,113
1658218,380,113
1658228,337,113
1658235,384,113
1658248,562,113
1658259,659,113
1658269,658,113
1658273,306,113
1658285,288,113
1658301,362,113
1658303,331,113
1658319,361,113
1658329,336,113
1658336,337,113
1658351,354,113
1658362,316,113
1658368,342,113
1658382,332,113
1658392,322,113
1658402,355,113
1658402,330,113
1658418,353,113
1658434,367,113
1658439,347,113
1658453,385,113
1658464,364,113
1658471,369,113
1658484,396,113
1658495,372,113
1658502,410,112
1658516,415,112
1658521,416,112
1658536,460,112
1658546,440,112
1658552,456,112
1658552,449,112
1658578,389,112
1658587,386,112
1658587,331,112
1658603,304,112
1658619,309,112
1658629,266,112
1658635,288,112
1658649,281,112
1658660,271,112
1658669,306,112
1658680,279,112
1658685,299,112
1658685,310,112
1658711,282,112
1658720,315,112
1658731,292,112
1658742,291,112
1658752,312,112
1658762,278,112
1658769,301,112
1658783,292,112
1658793,276,112
1658802,305,112
1658814,274,112
1658821,291,112
1658821,302,112
1658844,275,112
1658852,310,112
1658865,289,112
1658875,291,112
1658886,314,112
1658895,278,112
1658903,305,112
1658916,297,112
1658927,279,112
1658935,311,112
1658947,279,112
1658952,297,112
1658952,308,112
1658969,284,112
1658985,319,112
1658998,297,112
1659008,296,112
1659019,317,112
1659029,284,112
1659035,310,112
1659050,299,112
1659060,284,112
1659068,318,112
1659075,289,112
1659084,307,112
1659100,318,112
1659100,292,112
1659116,324,112
1659132,299,112
1659142,299,112
1659149,321,112
1659163,288,112
1659172,317,112
1659182,312,112
1659193,299,112
1659198,332,112
1659214,300,112
1659215,315,112
1659232,322,112
1659245,293,112
1659249,328,112
1659264,305,112
1659275,309,112
1659281,333,112
1659296,302,112
1659299,344,112
1659315,345,112
1659327,317,112
1659332,347,112
1659348,309,112
1659349,319,112
1659365,326,112
1659379,295,112
1659388,330,112
1659398,308,112
1659409,309,112
1659415,330,112
1659429,292,112
1659440,433,111
1659449,657,111
1659460,658,111
1659471,408,111
1659481,206,111
1659491,307,111
1659498,318,111
1659512,279,111
1659518,316,111
1659531,295,111
1659543,298,111
1659549,320,111
1659562,285,111
1659573,315,111
1659582,310,111
1659582,300,111
1659604,339,111
1659614,314,111
1659624,337,111
1659632,349,111
1659645,322,111
1659650,357,111
1659666,339,111
1659675,344,111
1659681,374,111
1659697,351,111
1659706,390,111
1659715,398,111
1659727,396,111
1659737,439,111
1659747,414,111
1659750,425,111
1659764,418,111
1659779,358,111
1659788,361,111
1659798,313,111
1659809,291,111
1659818,305,111
1659830,268,111
1659840,297,111
1659850,295,111
1659850,279,111
1659871,312,111
1659881,281,111
1659892,294,111
1659898,302,111
1659912,270,111
1659922,302,111
1659932,280,111
1659942,278,111
1659950,304,111
1659950,272,111
1659974,302,111
1659982,300,111
1659994,283,111
1659999,314,111
1659999,283,111
1660015,296,111
1660031,305,111
1660031,274,111
1660050,306,111
1660064,284,111
1660076,282,111
1660082,304,111
1660082,269,111
1660098,298,111
1660116,293,111
1660128,276,111
1660132,311,111
1660148,280,111
1660158,294,111
1660165,305,111
1660178,273,111
1660189,308,111
1660199,286,111
1660199,283,111
1660215,307,111
1660230,275,111
1660240,303,111
1660250,298,111
1660261,281,111
1660271,316,111
1660281,287,111
1660292,301,111
1660298,311,111
1660312,282,111
1660323,316,111
1660332,300,111
1660344,296,111
1660350,322,111
1660364,294,111
1660366,324,111
1660382,320,111
1660394,301,111
1660405,333,111
1660415,302,111
1660426,314,111
1660431,321,111
1660446,289,111
1660456,322,111
1660465,302,111
1660477,300,111
1660487,327,111
1660497,296,111
1660508,328,111
1660515,326,111
1660528,308,111
1660538,346,111
1660548,330,111
1660559,332,111
1660565,341,111
1660565,305,111
1660590,329,111
1660599,312,111
1660599,306,111
1660620,328,111
1660631,296,111
1660632,325,111
1660651,317,111
1660651,289,111
1660665,418,103
1660681,651,103
1660692,659,103
1660698,452,103
1660712,185,103
1660723,311,103
1660731,303,103
1660743,293,103
1660754,322,103
1660764,289,103
1660774,315,103
1660782,310,103
1660795,291,103
1660799,326,103
1660815,302,103
1660825,324,103
1660832,346,103
1660846,326,103
1660856,367,103
1660865,355,103
1660878,359,103
1660887,389,103
1660898,358,103
1660908,389,103
1660918,388,103
1660928,377,103
1660932,419,103
1660948,399,103
1660959,425,103
1660968,450,104
1660980,429,104
1660990,464,104
1660998,435,104
1661010,407,104
1661016,409,104
1661030,352,104
1661031,362,104
1661051,348,104
1661051,329,104
1661072,363,104
1661082,339,104
1661092,354,104
1661099,371,104
1661113,345,104
1661123,378,104
1661131,360,104
1661144,355,104
1661151,381,104
1661164,349,104
1661170,375,104
1661181,372,104
1661181,354,104
1661198,388,104
1661215,360,104
1661226,375,104
1661231,392,104
1661246,364,104
1661257,400,104
1661266,382,104
1661271,373,104
1661288,394,104
1661297,356,104
1661299,374,104
1661314,367,104
1661329,343,104
1661339,373,104
1661348,341,104
1661359,351,104
1661365,364,104
1661380,337,104
1661391,373,104
1661398,357,104
1661411,355,104
1661421,381,104
1661431,348,104
1661442,369,104
1661452,365,104
1661462,342,104
1661466,375,104
1661481,342,104
1661481,350,104
1661503,363,104
1661513,335,104
1661522,364,104
1661532,346,104
1661544,352,104
1661554,389,104
1661565,348,104
1661575,371,104
1661584,364,104
1661596,335,104
1661598,365,104
1661615,332,104
1661626,341,104
1661637,350,104
1661647,319,104
1661657,346,104
1661666,315,104
1661678,374,104
1661682,637,107
1661698,659,107
1661709,563,107
1661717,225,107
1661729,282,107
1661739,345,107
1661749,306,107
1661753,317,107
1661765,331,107
1661780,300,107
1661790,330,107
1661798,308,107
1661810,300,107
1661822,326,107
1661831,297,107
1661842,328,107
1661848,334,107
1661862,324,107
1661872,363,107
1661881,340,107
1661881,353,107
1661899,370,107
1661914,345,107
1661924,384,107
1661932,373,107
1661932,377,107
1661953,415,107
1661964,394,107
1661975,426,107
1661982,432,107
1661996,409,107
1661999,425,107
1662015,364,107
1662027,342,107
1662037,328,107
1662047,272,107
1662053,290,107
1662065,270,107
1662078,261,107
1662081,287,107
1662099,255,107
1662099,283,107
1662115,286,107
1662125,267,107
1662140,300,107
1662148,272,107
1662161,280,107
1662170,292,107
1662181,259,107
1662191,289,107
1662198,268,107
1662211,257,107
1662222,282,107
1662232,247,107
1662242,272,107
1662249,274,107
1662255,253,107
1662273,292,107
1662283,264,107
1662294,273,107
1662298,285,107
1662314,251,107
1662324,282,107
1662331,265,107
1662345,256,107
1662355,284,107
1662365,251,107
1662376,277,107
1662381,280,107
1662397,261,107
1662406,297,107
1662415,269,107
1662427,277,107
1662437,294,107
1662448,264,107
1662458,295,107
1662466,280,107
1662466,275,107
1662489,306,107
1662499,273,107
1662510,298,107
1662515,300,107
1662530,280,107
1662532,316,107
1662549,290,107
1662560,299,107
1662568,315,107
1662581,285,107
1662581,317,107
1662599,304,107
1662612,296,107
1662615,327,107
1662631,293,107
1662642,315,107
1662648,313,107
1662663,288,107
1662673,322,107
1662681,295,107
1662694,302,107
1662704,320,107
1662714,289,107
1662725,325,107
1662731,314,107
1662746,310,107
1662756,341,107
1662765,309,107
1662776,340,107
1662782,352,107
1662797,330,107
1662808,357,107
1662815,329,107
1662827,330,107
1662838,341,107
1662847,310,107
1662858,341,107
1662865,328,107
1662879,323,107
1662889,356,107
1662898,322,107
1662910,344,107
1662919,469,106
1662930,657,106
1662941,659,106
1662948,408,106
1662960,241,106
1662971,340,106
1662981,305,106
1662992,328,106
1662999,313,106
1663012,304,106
1663023,333,106
1663032,300,106
1663043,320,106
1663048,324,106
1663064,304,106
1663074,343,106
1663081,320,106
1663094,332,106
1663105,354,106
1663114,328,106
1663125,365,106
1663131,353,106
1663145,347,106
1663156,380,106
1663165,356,106
1663176,387,106
1663181,402,106
1663197,392,106
1663198,443,106
1663215,428,106
1663227,442,106
1663231,458,106
1663248,413,106
1663259,415,106
1663265,371,106
1663279,333,106
1663289,338,106
1663298,288,106
1663310,303,106
1663320,304,106
1663331,283,106
1663340,321,106
1663348,299,106
1663362,308,106
1663367,325,106
1663382,291,106
1663392,318,106
1663398,300,106
1663413,287,106
1663421,315,106
1663431,282,106
1663431,304,106
1663454,306,106
1663463,282,106
1663474,318,106
1663478,294,106
1663494,303,106
1663494,323,106
1663511,292,106
1663525,320,106
1663527,303,106
1663545,290,106
1663556,318,106
1663562,283,106
1663577,305,106
1663578,309,106
1663594,288,106
1663608,325,106
1663612,303,106
1663628,312,106
1663629,332,106
1663644,300,106
1663658,332,106
1663661,318,106
1663678,306,106
1663690,335,106
1663695,300,106
1663711,321,106
1663720,324,106
1663728,302,106
1663741,339,106
1663751,316,106
1663761,323,106
1663771,343,106
1663778,314,106
1663778,347,106
1663803,333,106
1663811,321,106
1663822,349,106
1663834,315,106
1663843,333,106
1663847,337,106
1663863,311,106
1663873,346,106
1663878,321,106
1663895,328,106
1663906,348,106
1663912,314,106
1663926,350,106
1663936,346,106
1663945,335,106
1663957,360,106
1663961,326,106
1663977,338,106
1663978,337,106
1663995,309,106
1664009,342,106
1664018,317,106
1664028,318,106
1664039,338,106
1664045,302,106
1664059,330,106
1664070,433,101
1664078,656,101
1664090,658,101
1664100,376,101
1664110,224,101
1664122,315,101
1664128,289,101
1664142,309,101
1664151,283,101
1664161,285,101
1664172,306,101
1664178,273,101
1664193,306,101
1664203,295,101
1664213,285,101
1664224,320,101
1664229,291,101
1664244,316,101
1664254,325,101
1664264,297,101
1664275,331,101
1664285,310,101
1664294,319,101
1664306,344,101
1664312,317,101
1664326,355,101
1664337,359,101
1664345,358,101
1664357,403,101
1664361,382,101
1664378,409,102
1664388,408,102
1664395,366,102
1664408,371,102
1664418,314,102
1664428,292,102
1664440,294,102
1664445,252,102
1664459,283,102
1664470,275,102
1664478,268,102
1664478,302,102
1664501,275,102
1664510,298,102
1664521,306,102
1664528,281,102
1664541,311,102
1664552,284,102
1664561,288,102
1664573,308,102
1664579,275,102
1664594,306,102
1664599,296,102
1664612,287,102
1664624,321,102
1664634,291,102
1664644,310,102
1664655,317,102
1664664,292,102
1664675,320,102
1664685,293,102
1664694,294,102
1664706,314,102
1664711,276,102
1664726,304,102
1664737,298,102
1664745,284,102
1664758,318,102
1664767,288,102
1664778,309,102
1664788,317,102
1664795,292,102
1664795,327,102
1664819,302,102
1664828,303,102
1664839,320,102
1664845,287,102
1664860,315,102
1664871,304,102
1664878,289,102
1664891,323,102
1664895,295,102
1664912,315,102
1664922,326,102
1664928,305,102
1664942,345,102
1664953,324,102
1664961,339,102
1664974,374,102
1664983,339,102
1664994,368,102
1665004,356,102
1665011,337,102
1665024,367,102
1665035,335,102
1665045,352,102
1665045,360,102
1665061,339,102
1665076,374,102
1665086,342,102
1665095,396,102
1665095,651,106
1665112,660,106
1665128,644,106
1665137,270,106
1665146,309,106
1665157,386,106
1665161,347,106
1665178,363,106
1665188,370,106
1665194,341,106
1665209,371,106
1665220,347,106
1665228,348,106
1665228,373,106
1665245,347,106
1665261,382,106
1665271,383,106
1665278,379,106
1665278,419,106
1665295,391,106
1665312,408,106
1665323,413,106
1665328,385,106
1665343,418,106
1665353,399,106
1665361,408,106
1665372,442,106
1665384,424,106
1665394,466,106
1665395,468,106
1665412,455,106
1665425,472,106
1665435,414,106
1665445,397,106
1665445,375,106
1665462,324,106
1665476,344,106
1665487,317,106
1665495,318,106
1665506,342,106
1665516,313,106
1665527,347,106
1665537,346,106
1665544,331,106
1665559,363,106
1665565,329,106
1665578,342,106
1665578,350,106
1665595,324,106
1665609,351,106
1665619,325,106
1665628,321,106
1665641,346,106
1665646,314,106
1665661,340,106
1665671,337,106
1665678,326,106
1665692,361,106
1665702,334,106
1665711,349,106
1665722,357,106
1665728,326,106
1665743,355,106
1665753,330,106
1665763,322,106
1665763,340,106
1665778,302,106
1665794,329,106
1665794,325,106
1665812,313,106
1665825,348,106
1665835,322,106
1665844,337,106
1665856,346,106
1665862,318,106
1665876,350,106
1665886,326,106
1665894,318,106
1665907,348,106
1665917,320,106
1665928,347,106
1665938,336,106
1665948,315,106
