Timestamp,ECGValue,BPM
1884538,357,102
1884543,321,102
1884558,348,102
1884568,365,102
1884576,336,102
1884584,392,102
1884594,373,102
1884609,382,102
1884619,422,102
1884625,385,102
1884640,429,102
1884643,425,102
1884659,410,102
1884671,461,102
1884676,432,102
1884692,470,102
1884702,502,102
1884710,481,102
1884722,534,102
1884733,507,102
1884743,488,102
1884753,485,102
1884763,400,102
1884763,404,102
1884784,372,102
1884793,339,102
1884805,381,102
1884814,346,102
1884825,371,102
1884835,385,102
1884843,349,102
1884856,383,102
1884864,346,102
1884875,335,102
1884884,360,102
1884892,314,102
1884908,349,102
1884918,344,102
1884927,327,102
1884927,378,102
1884948,340,102
1884959,359,102
1884969,370,102
1884977,329,102
1884989,371,102
1884992,344,102
1885009,339,102
1885020,368,102
1885026,320,102
1885026,347,102
1885051,331,102
1885059,299,102
1885072,335,102
1885076,289,102
1885092,304,102
1885092,320,102
1885109,284,102
1885124,331,102
1885134,311,102
1885143,310,102
1885153,345,102
1885159,300,102
1885165,331,102
1885185,324,102
1885193,293,102
1885205,335,102
1885210,292,102
1885226,305,102
1885236,321,102
1885243,286,102
1885243,327,102
1885259,302,102
1885275,299,102
1885285,332,102
1885293,289,102
1885308,317,102
1885318,313,102
1885326,287,102
1885326,330,102
1885343,294,102
1885359,316,102
1885367,349,102
1885376,310,102
1885390,351,102
1885393,322,102
1885410,306,102
1885421,335,102
1885426,288,102
1885441,316,102
1885442,311,102
1885460,282,102
1885472,328,102
1885476,281,102
1885492,346,102
1885492,590,106
1885509,658,106
1885523,577,106
1885527,195,106
1885543,255,106
1885543,322,106
1885561,267,106
1885569,298,106
1885585,297,106
1885593,273,106
1885605,321,106
1885610,285,106
1885626,301,106
1885636,323,106
1885642,285,106
1885657,329,106
1885664,314,106
1885675,314,106
1885687,356,106
1885692,320,106
1885708,358,106
1885719,363,106
1885725,340,106
1885739,389,106
1885749,360,106
1885759,381,106
1885770,415,106
1885776,388,106
1885790,442,106
1885793,430,106
1885811,423,106
1885821,446,106
1885826,371,106
1885842,361,106
1885843,326,106
1885859,272,106
1885872,302,106
1885876,261,106
1885892,276,106
1885903,304,106
1885911,270,106
1885924,317,106
1885925,300,106
1885942,290,106
1885942,326,106
1885959,279,106
1885975,304,106
1885977,303,106
1885993,272,106
1886006,318,106
1886010,286,106
1886025,297,106
1886036,320,106
1886044,278,106
1886058,320,106
1886066,298,106
1886076,286,106
1886087,325,106
1886093,282,106
1886109,312,106
1886118,311,106
1886126,278,106
1886139,322,106
1886143,283,106
1886160,289,106
1886169,311,106
1886177,269,106
1886191,312,106
1886193,297,106
1886209,286,106
1886221,327,106
1886232,287,106
1886242,316,106
1886252,318,106
1886259,285,106
1886273,330,106
1886283,292,106
1886293,303,106
1886304,326,106
1886313,284,106
1886324,328,106
1886334,312,106
1886342,300,106
1886355,339,106
1886365,294,106
1886375,320,106
1886385,325,106
1886393,293,106
1886406,338,106
1886416,305,106
1886427,314,106
1886427,339,106
1886443,298,106
1886458,338,106
1886460,322,106
1886476,309,106
1886486,348,106
1886494,305,106
1886494,334,106
1886519,340,106
1886527,309,106
1886527,356,106
1886542,320,106
1886560,328,106
1886570,365,106
1886576,325,106
1886586,355,106
1886594,336,106
1886610,315,106
1886622,349,106
1886627,305,106
1886643,330,106
1886652,337,106
1886659,304,106
1886673,347,106
1886684,310,106
1886694,316,106
1886694,489,103
1886710,657,103
1886720,657,103
1886727,325,103
1886743,231,103
1886755,346,103
1886759,296,103
1886776,314,103
1886777,319,103
1886793,283,103
1886806,327,103
1886810,295,103
1886826,297,103
1886837,327,103
1886843,289,103
1886858,335,103
1886865,329,103
1886876,318,103
1886888,362,103
1886893,323,103
1886909,351,103
1886917,360,103
1886926,328,103
1886940,377,103
1886950,355,103
1886959,371,103
1886970,412,103
1886981,384,103
1886991,437,103
1887001,431,103
1887010,414,103
1887022,447,103
1887032,382,103
1887043,370,103
1887053,345,103
1887059,284,103
1887074,312,103
1887083,274,103
1887092,272,103
1887104,302,103
1887114,256,103
1887125,292,103
1887127,276,103
1887142,255,103
1887156,295,103
1887162,250,103
1887176,272,103
1887186,280,103
1887193,245,103
1887207,292,103
1887217,265,103
1887226,268,103
1887238,295,103
1887242,252,103
1887258,290,103
1887263,276,103
1887276,257,103
1887289,298,103
1887292,257,103
1887309,281,103
1887319,293,103
1887326,257,103
1887340,304,103
1887350,276,103
1887359,275,103
1887371,306,103
1887377,262,103
1887392,298,103
1887402,289,103
1887409,268,103
1887409,312,103
1887426,275,103
1887442,303,103
1887453,320,103
1887459,284,103
1887474,327,103
1887484,300,103
1887492,299,103
1887505,329,103
1887515,281,103
1887525,317,103
1887535,311,103
1887543,295,103
1887555,338,103
1887566,297,103
1887576,317,103
1887586,331,103
1887593,295,103
1887607,339,103
1887617,311,103
1887627,310,103
1887638,340,103
1887648,299,103
1887659,338,103
1887669,331,103
1887676,317,103
1887689,357,103
1887700,316,103
1887709,336,103
1887720,345,103
1887726,307,103
1887726,347,103
1887743,323,103
1887760,338,103
1887771,373,103
1887781,324,103
1887792,356,103
1887803,343,103
1887809,319,103
1887822,358,103
1887833,318,103
1887842,334,103
1887853,345,103
1887864,307,103
1887874,337,103
1887885,345,103
1887893,556,100
1887904,659,100
1887915,642,100
1887925,247,100
1887927,281,100
1887942,305,100
1887956,338,100
1887960,300,100
1887975,320,100
1887986,335,100
1887994,301,100
1888007,347,100
1888018,320,100
1888026,324,100
1888038,359,100
1888048,321,100
1888059,361,100
1888069,360,100
1888076,341,100
1888090,385,100
1888101,351,100
1888110,372,100
1888112,388,100
1888126,357,100
1888140,411,100
1888143,402,100
1888159,417,100
1888172,461,100
1888176,433,100
1888192,476,100
1888203,466,100
1888209,431,100
1888222,446,100
1888234,372,100
1888243,357,100
1888254,345,100
1888259,293,100
1888274,329,100
1888284,305,100
1888292,298,100
1888305,332,100
1888314,288,100
1888325,316,100
1888327,315,100
1888343,291,100
1888343,338,100
1888367,303,100
1888376,322,100
1888387,336,100
1888393,303,100
1888408,346,100
1888418,325,100
1888426,322,100
1888438,358,100
1888443,316,100
1888459,350,100
1888470,345,100
1888476,321,100
1888490,366,100
1888500,324,100
1888509,337,100
1888520,355,100
1888531,316,100
1888541,359,100
1888551,338,100
1888561,335,100
1888572,371,100
1888582,329,100
1888592,363,100
1888603,360,100
1888610,335,100
1888623,380,100
1888627,339,100
1888643,353,100
1888654,370,100
1888660,333,100
1888668,375,100
1888677,355,100
1888693,353,100
1888693,383,100
1888709,339,100
1888727,380,100
1888737,387,100
1888742,352,100
1888757,393,100
1888767,349,100
1888775,354,100
1888787,370,100
1888793,330,100
1888809,370,100
1888810,347,100
1888827,342,100
1888839,377,100
1888843,323,100
1888859,412,106
1888870,650,106
1888876,659,106
1888887,633,106
1888892,248,106
1888910,323,106
1888921,378,106
1888931,333,106
1888941,372,106
1888952,348,106
1888960,339,106
1888972,369,106
1888983,321,106
1888992,351,106
1889003,349,106
1889009,320,106
1889025,372,106
1889034,344,106
1889043,366,106
1889043,389,106
1889065,354,106
1889075,402,106
1889085,379,106
1889093,370,106
1889093,405,106
1889116,369,106
1889126,407,106
1889137,420,106
1889143,409,106
1889157,468,106
1889167,440,105
1889176,449,105
1889188,446,105
1889199,368,105
1889208,363,105
1889219,305,105
1889226,270,105
1889226,292,105
1889242,246,105
1889260,277,105
1889270,280,105
1889276,256,105
1889291,303,105
1889301,268,105
1889310,278,105
1889321,292,105
1889326,249,105
1889342,289,105
1889343,269,105
1889360,261,105
1889373,298,105
1889383,260,105
1889393,288,105
1889404,288,105
1889410,260,105
1889416,303,105
1889435,271,105
1889443,282,105
1889456,304,105
1889459,266,105
1889476,312,105
1889476,291,105
1889492,279,105
1889506,312,105
1889517,266,105
1889526,292,105
1889538,287,105
1889542,259,105
1889558,301,105
1889568,267,105
1889577,280,105
1889589,305,105
1889593,265,105
1889609,302,105
1889619,283,105
1889627,269,105
1889640,305,105
1889643,263,105
1889660,295,105
1889671,300,105
1889681,274,105
1889691,321,105
1889701,290,105
1889709,301,105
1889722,321,105
1889732,279,105
1889742,320,105
1889752,300,105
1889762,289,105
1889762,325,105
1889776,285,105
1889793,314,105
1889793,318,105
1889809,289,105
1889825,334,105
1889829,300,105
1889843,310,105
1889855,331,105
1889863,290,105
1889876,333,105
1889876,315,105
1889894,304,105
1889894,342,105
1889911,302,105
1889926,332,105
1889926,336,105
1889942,306,105
1889958,364,105
1889967,328,105
1889976,330,105
1889989,351,105
1889992,302,105
1890010,339,105
1890015,321,105
1890027,307,105
1890040,344,105
1890043,303,105
1890059,334,105
1890071,326,105
1890076,324,105
1890092,564,105
1890093,659,105
1890109,641,105
1890123,272,105
1890133,249,105
1890142,339,105
1890153,306,105
1890159,289,105
1890173,328,105
1890177,283,105
1890193,311,105
1890205,314,105
1890214,284,105
1890226,331,105
1890235,302,105
1890242,315,105
1890255,342,105
1890267,304,105
1890276,349,105
1890286,335,105
1890293,320,105
1890306,362,105
1890317,325,105
1890325,359,105
1890338,373,105
1890342,355,105
1890358,414,105
1890361,396,105
1890377,417,105
1890387,446,105
1890393,405,105
1890409,438,105
1890421,403,105
1890426,359,105
1890440,363,105
1890450,295,105
1890459,306,105
1890471,300,105
1890476,262,105
1890491,308,105
1890492,275,105
1890509,284,105
1890522,309,105
1890526,270,105
1890543,311,105
1890554,296,105
1890559,280,105
1890574,316,105
1890584,271,105
1890592,296,105
1890605,299,105
1890615,268,105
1890625,314,105
1890635,282,105
1890642,292,105
1890642,317,105
1890660,277,105
1890676,318,105
1890687,301,105
1890694,285,105
1890694,321,105
1890711,277,105
1890725,304,105
1890739,307,105
1890743,276,105
1890759,321,105
1890769,290,105
1890776,300,105
1890790,327,105
1890793,286,105
1890810,326,105
1890820,309,105
1890831,296,105
1890841,335,105
1890852,292,105
1890859,316,105
1890871,321,105
1890877,290,105
1890892,335,105
1890902,305,105
1890909,313,105
1890923,340,105
1890927,297,105
1890943,337,105
1890954,323,105
1890959,308,105
1890974,349,105
1890984,306,105
1890993,331,105
1891005,338,105
1891015,304,105
1891026,350,105
1891036,318,105
1891043,325,105
1891043,351,105
1891060,309,105
1891076,346,105
1891088,330,105
1891093,316,105
1891109,353,105
1891119,312,105
1891127,337,105
1891138,343,105
1891142,311,105
1891159,353,105
1891169,321,105
1891176,328,105
1891190,350,105
1891200,310,105
1891209,364,105
1891221,346,105
1891226,324,105
1891241,361,105
1891251,312,105
1891259,333,105
1891272,335,105
1891278,301,105
1891293,343,105
1891293,310,105
1891309,314,105
1891323,323,105
1891327,316,105
1891342,552,102
1891354,658,102
1891365,608,102
1891375,244,102
1891386,247,102
1891393,319,102
1891393,311,102
1891416,274,102
1891426,318,102
1891429,285,102
1891443,287,102
1891456,311,102
1891467,268,102
1891476,309,102
1891476,299,102
1891494,289,102
1891508,335,102
1891518,301,102
1891527,331,102
1891527,341,102
1891543,311,102
1891559,360,102
1891570,333,102
1891576,344,102
1891576,378,102
1891601,346,102
1891609,399,102
1891622,401,102
1891626,398,102
1891642,447,102
1891651,405,102
1891659,419,102
1891672,399,102
1891683,329,102
1891692,340,102
1891703,284,102
1891712,272,102
1891712,294,102
1891734,251,102
1891743,298,102
1891754,289,102
1891764,275,102
1891775,317,102
1891785,274,102
1891793,296,102
1891805,301,102
1891815,268,102
1891826,309,102
1891836,280,102
1891843,282,102
1891857,311,102
1891862,268,102
1891876,311,102
1891888,300,102
1891894,287,102
1891908,331,102
1891919,293,102
1891925,319,102
1891939,329,102
1891950,296,102
1891959,342,102
1891971,306,102
1891976,308,102
1891991,330,102
1892001,287,102
1892009,324,102
1892021,309,102
1892027,291,102
1892027,333,102
1892053,294,102
1892060,318,102
1892073,327,102
1892083,296,102
1892093,342,102
1892103,312,102
1892109,315,102
1892124,341,102
1892135,295,102
1892143,334,102
1892155,321,102
1892165,304,102
1892176,343,102
1892177,305,102
1892193,332,102
1892193,337,102
1892210,305,102
1892226,348,102
1892237,314,102
1892243,320,102
1892243,347,102
1892268,305,102
1892276,349,102
1892289,335,102
1892293,317,102
1892309,366,102
1892315,334,102
1892326,346,102
1892326,351,102
1892343,306,102
1892359,343,102
1892371,312,102
1892381,317,102
1892390,347,102
1892394,307,102
1892409,347,102
1892422,333,102
1892433,314,102
1892443,474,104
1892453,658,104
1892459,659,104
1892473,429,104
1892483,206,104
1892494,346,104
1892505,326,104
1892512,324,104
1892525,352,104
1892534,313,104
1892542,352,104
1892555,342,104
1892566,325,104
1892575,371,104
1892586,335,104
1892594,358,104
1892607,373,104
1892617,349,104
1892626,397,104
1892638,371,104
1892648,379,104
1892658,408,104
1892660,370,104
1892676,412,104
1892689,406,104
1892698,400,104
1892710,453,104
1892720,428,104
1892725,461,104
1892741,479,104
1892750,451,104
1892760,484,104
1892763,432,104
1892776,398,104
1892776,390,104
1892794,318,104
1892809,336,104
1892823,311,104
1892833,287,104
1892843,326,104
1892843,283,104
1892859,307,104
1892873,317,104
1892876,284,104
1892894,330,104
1892904,300,104
1892915,307,104
1892925,339,104
1892936,299,104
1892942,337,104
1892956,329,104
1892965,311,104
1892976,351,104
1892987,310,104
1892995,334,104
1893006,346,104
1893012,314,104
1893026,357,104
1893038,325,104
1893043,326,104
1893059,353,104
1893069,308,104
1893077,344,104
1893089,331,104
1893100,314,104
1893110,356,104
1893120,318,104
1893129,343,104
1893140,349,104
1893151,316,104
1893159,359,104
1893162,330,104
1893176,330,104
1893192,359,104
1893202,317,104
1893209,353,104
1893218,343,104
1893233,328,104
1893242,370,104
1893253,333,104
1893260,354,104
1893274,370,104
1893284,352,104
1893294,395,104
1893305,358,104
1893313,356,104
1893313,378,104
1893326,333,104
1893343,367,104
1893356,356,104
1893366,336,104
1893376,374,104
1893387,332,104
1893394,344,104
1893407,361,104
1893417,489,108
1893425,659,108
1893438,659,108
1893449,334,108
1893458,285,108
1893468,320,108
1893477,355,108
1893489,336,108
1893500,317,108
1893510,356,108
1893519,310,108
1893526,327,108
1893541,333,108
1893551,296,108
1893559,341,108
1893572,314,108
1893576,321,108
1893592,358,108
1893594,327,108
1893610,366,108
1893623,361,108
1893634,343,108
1893643,383,108
1893653,344,108
1893659,372,108
1893674,389,108
1893676,364,108
1893695,422,108
1893705,408,108
1893715,419,108
1893726,450,108
1893736,393,108
1893742,398,108
1893757,347,108
1893767,292,108
1893776,306,108
1893787,248,108
1893795,264,108
1893807,272,108
1893818,242,108
1893826,295,108
1893838,267,108
1893843,270,108
1893859,299,108
1893868,256,108
1893876,293,108
1893890,281,108
1893900,262,108
1893909,301,108
1893921,260,108
1893926,280,108
1893942,286,108
1893952,248,108
1893960,290,108
1893972,262,108
1893980,267,108
1893992,297,108
1894003,259,108
1894009,298,108
1894023,292,108
1894033,274,108
1894042,315,108
1894054,273,108
1894060,290,108
1894060,297,108
1894077,259,108
1894095,302,108
1894106,273,108
1894110,273,108
1894126,305,108
1894137,268,108
1894143,306,108
1894143,296,108
1894160,278,108
1894176,318,108
1894187,277,108
1894195,296,108
1894208,308,108
1894219,274,108
1894226,317,108
1894239,289,108
1894249,291,108
1894259,321,108
1894270,280,108
1894276,318,108
1894290,311,108
1894301,294,108
1894309,335,108
1894321,295,108
1894331,317,108
1894341,325,108
1894343,288,108
1894359,335,108
1894373,307,108
1894383,308,108
1894392,337,108
1894403,297,108
1894409,336,108
1894424,324,108
1894433,306,108
1894442,347,108
1894455,306,108
1894465,327,108
1894476,337,108
1894485,302,108
1894495,351,108
1894506,320,108
1894509,320,108
1894526,357,108
1894536,329,108
1894543,355,108
1894557,341,108
1894559,318,108
1894577,350,108
1894588,307,108
1894595,327,108
1894608,338,108
1894619,302,108
1894626,345,108
1894639,316,108
1894643,308,108
1894659,414,103
1894670,606,103
1894676,659,103
1894691,540,103
1894696,205,103
1894709,333,103
1894721,307,103
1894731,316,103
1894742,324,103
1894752,288,103
1894760,330,103
1894773,301,103
1894783,303,103
1894792,334,103
1894804,293,103
1894809,335,103
1894825,329,103
1894835,317,103
1894843,367,103
1894854,327,103
1894862,346,103
1894876,362,103
1894886,328,103
1894896,375,103
1894907,352,103
1894916,363,103
1894926,405,103
1894937,376,103
1894942,430,103
1894958,432,103
1894968,415,103
1894976,453,103
1894988,403,103
1894999,399,103
1895009,377,103
1895019,313,103
1895029,335,103
1895040,290,103
1895050,284,103
1895059,310,103
1895070,265,103
1895077,303,103
1895091,293,103
1895096,275,103
1895109,318,103
1895122,279,103
1895132,300,103
1895143,309,103
1895152,272,103
1895159,314,103
1895173,283,103
1895184,285,103
1895192,315,103
1895203,275,103
1895209,313,103
1895225,301,103
1895227,282,103
1895243,324,103
1895255,283,103
1895266,304,103
1895275,311,103
1895286,274,103
1895296,318,103
1895306,290,103
1895317,294,103
1895326,326,103
1895326,284,103
1895343,324,103
1895358,316,103
1895369,300,103
1895376,342,103
1895389,300,103
1895396,320,103
1895409,327,103
1895416,287,103
1895427,330,103
1895440,299,103
1895443,301,103
1895460,333,103
1895471,295,103
1895477,336,103
1895491,331,103
1895501,314,103
1895509,356,103
1895522,313,103
1895526,335,103
1895542,343,103
1895553,306,103
1895563,351,103
1895573,320,103
1895583,321,103
1895593,351,103
1895596,307,103
1895610,344,103
1895625,332,103
1895635,313,103
1895643,355,103
1895655,312,103
1895659,332,103
1895676,342,103
1895677,307,103
1895696,349,103
1895707,319,103
1895710,321,103
1895726,347,103
1895737,304,103
1895748,342,103
1895758,329,103
1895769,307,103
1895776,352,103
1895790,322,103
1895799,341,103
1895809,344,103
1895820,306,103
1895826,343,103
1895826,309,103
1895851,309,103
1895859,336,103
1895871,291,103
1895877,328,103
1895892,316,103
1895896,290,103
1895909,335,103
1895919,442,103
1895926,658,103
1895943,658,103
1895943,281,103
1895960,248,103
1895973,294,103
1895977,288,103
1895993,308,103
1895997,262,103
1896010,300,103
1896026,290,103
1896026,275,103
1896044,318,103
1896056,282,103
1896066,308,103
1896076,323,103
1896087,291,103
1896097,340,103
1896107,314,103
1896114,316,103
1896126,353,103
1896126,316,103
1896143,360,103
1896159,356,103
1896169,344,103
1896176,399,103
1896176,370,103
1896200,406,103
1896210,429,103
1896218,402,103
1896225,450,102
1896241,412,102
1896243,395,102
1896259,389,102
1896272,309,102
1896277,320,102
1896277,288,102
1896303,259,102
1896309,299,102
1896319,264,102
1896332,290,102
1896343,304,102
1896343,274,102
1896360,319,102
1896374,288,102
1896377,287,102
1896392,318,102
1896405,272,102
1896409,308,102
1896426,296,102
1896436,280,102
1896443,325,102
1896457,292,102
1896467,318,102
1896476,333,102
1896486,303,102
1896497,350,102
1896508,323,102
1896519,324,102
1896525,353,102
1896539,307,102
1896543,339,102
1896559,328,102
1896569,309,102
1896576,352,102
1896576,312,102
1896597,340,102
1896610,356,102
1896621,325,102
1896626,374,102
1896626,349,102
1896643,355,102
1896659,387,102
1896672,344,102
1896682,382,102
1896693,371,102
1896703,352,102
1896709,392,102
1896723,350,102
1896733,374,102
1896742,384,102
1896754,347,102
1896764,390,102
1896775,360,102
1896784,361,102
1896792,392,102
1896805,348,102
1896816,382,102
1896825,375,102
1896836,369,102
1896843,410,109
1896857,357,109
1896867,372,109
1896876,374,109
1896888,332,109
1896897,373,109
1896897,342,109
1896918,343,109
1896926,373,109
1896938,330,109
1896944,360,109
1896959,356,109
1896970,491,109
1896977,659,109
1896977,659,109
1896998,365,109
1897009,280,109
1897021,322,109
1897027,363,109
1897027,326,109
1897052,324,109
1897061,352,109
1897073,306,109
1897082,340,109
1897093,327,109
1897103,309,109
1897109,354,109
1897124,318,109
1897127,347,109
1897143,365,109
1897154,335,109
1897160,383,109
1897168,357,109
1897176,360,109
1897193,393,109
1897206,350,109
1897216,393,109
1897226,394,109
1897236,386,109
1897242,445,107
1897257,418,107
1897268,446,107
1897276,458,107
1897288,410,107
1897298,429,107
1897309,361,107
1897319,326,107
1897326,328,107
1897339,266,107
1897350,295,107
1897359,285,107
1897370,268,107
1897376,314,107
1897376,273,107
1897401,294,107
1897410,305,107
1897422,266,107
1897432,311,107
1897442,284,107
1897452,285,107
1897460,316,107
1897472,271,107
1897483,309,107
1897492,299,107
1897503,276,107
1897512,315,107
1897525,272,107
1897534,293,107
1897543,308,107
1897555,272,107
1897560,318,107
1897576,291,107
1897586,291,107
1897594,322,107
1897606,275,107
1897612,308,107
1897626,292,107
1897637,270,107
1897643,310,107
1897658,271,107
1897668,295,107
1897677,309,107
1897688,273,107
1897698,321,107
1897709,296,107
1897713,293,107
1897726,321,107
1897740,274,107
1897743,310,107
1897759,300,107
1897767,277,107
1897777,320,107
1897777,284,107
1897798,305,107
1897810,320,107
1897822,284,107
1897826,329,107
1897843,302,107
1897853,298,107
1897859,328,107
1897873,285,107
1897884,320,107
1897893,313,107
1897904,292,107
1897913,337,107
1897913,298,107
1897935,321,107
1897943,333,107
1897956,297,107
1897960,355,107
1897975,329,107
1897986,320,107
1897992,349,107
1898006,297,107
1898017,327,107
1898026,317,107
1898038,296,107
1898048,338,107
1898058,299,107
1898068,320,107
1898076,323,107
1898088,306,107
1898098,532,106
1898098,659,106
1898118,649,106
1898126,279,106
1898126,239,106
1898150,335,106
1898160,315,106
1898169,287,106
1898176,333,106
1898191,294,106
1898198,313,106
1898209,326,106
1898218,287,106
1898232,332,106
1898243,304,106
1898253,310,106
1898260,348,106
1898274,312,106
1898284,353,106
1898293,352,106
1898304,335,106
1898315,378,106
1898325,338,106
1898334,363,106
1898342,381,106
1898356,355,106
1898366,414,106
1898376,401,106
1898377,413,106
1898393,453,106
1898398,411,106
1898417,438,106
1898427,408,106
1898438,353,106
1898443,366,106
1898458,301,106
1898466,302,106
1898476,307,106
1898489,266,106
1898499,310,106
1898509,285,106
1898520,282,106
1898526,314,106
1898540,270,106
1898551,307,106
1898559,303,106
1898571,279,106
1898578,323,106
1898578,280,106
1898602,296,106
1898610,311,106
1898623,271,106
1898627,315,106
1898642,289,106
1898653,288,106
1898660,323,106
1898674,280,106
1898684,318,106
1898693,312,106
1898705,288,106
1898712,328,106
1898725,287,106
1898735,304,106
1898743,318,106
1898743,280,106
1898759,326,106
1898776,301,106
1898787,302,106
1898793,336,106
1898807,293,106
1898817,329,106
1898826,322,106
1898838,297,106
1898848,341,106
1898859,298,106
1898868,316,106
1898876,330,106
1898880,291,106
1898899,336,106
1898910,311,106
1898920,311,106
1898926,344,106
1898926,300,106
1898951,336,106
1898959,328,106
1898971,303,106
1898977,347,106
1898991,307,106
1898999,325,106
1899009,339,106
1899015,304,106
1899025,349,106
1899041,322,106
1899041,317,106
1899064,350,106
1899074,306,106
1899084,340,106
1899095,333,106
1899100,309,106
1899116,350,106
1899125,309,106
1899134,330,106
1899134,344,106
1899156,305,106
1899167,356,106
1899177,343,106
1899184,330,106
1899197,359,106
1899200,312,106
1899218,337,106
1899228,326,106
1899234,300,106
1899249,342,106
1899260,302,106
1899268,320,106
1899279,335,106
1899289,286,106
1899300,395,106
1899310,602,101
1899317,658,101
1899331,560,101
1899341,188,101
1899350,307,101
1899361,322,101
1899367,286,101
1899382,327,101
1899384,287,101
1899400,304,101
1899413,320,101
1899419,280,101
1899433,325,101
1899443,304,101
1899450,303,101
1899463,344,101
1899475,305,101
1899484,343,101
1899495,345,101
1899505,322,101
1899516,370,101
1899526,334,101
1899533,357,101
1899547,379,101
1899557,346,101
1899567,401,101
1899577,393,101
1899585,401,101
1899597,444,101
1899601,405,101
1899617,439,101
1899627,421,101
1899634,367,101
1899634,373,101
1899658,301,101
1899667,291,101
1899680,293,101
1899684,249,101
1899700,295,101
1899711,274,101
1899717,273,101
1899731,310,101
1899741,269,101
1899750,302,101
1899762,291,101
1899772,262,101
1899783,304,101
1899784,264,101
1899800,275,101
1899800,295,101
1899817,261,101
1899834,310,101
1899834,292,101
1899849,291,101
1899865,333,101
1899874,289,101
1899884,322,101
1899884,318,101
1899900,289,101
1899916,330,101
1899926,290,101
1899934,300,101
1899934,319,101
1899957,280,101
1899967,321,101
1899978,298,101
1899983,291,101
1899998,329,101
1900008,284,101
1900017,318,101
1900023,319,101
1900039,298,101
1900049,345,101
1900060,313,101
1900067,332,101
1900080,354,101
1900091,316,101
1900100,362,101
1900110,339,101
1900121,333,101
1900132,369,101
1900142,326,101
1900151,363,101
1900151,363,101
1900167,340,101
1900183,387,101
1900193,352,101
1900201,372,101
1900201,392,101
1900224,351,101
1900234,403,107
1900244,391,107
1900251,377,107
1900251,405,107
1900275,353,107
1900283,374,107
1900296,370,107
1900306,341,107
1900317,383,107
1900323,345,107
1900333,358,107
1900346,375,107
1900357,321,107
1900366,428,107
1900378,650,107
1900383,659,107
1900399,610,107
1900401,217,107
1900417,326,107
1900427,353,107
1900434,315,107
1900450,356,107
1900451,316,107
1900467,328,107
1900480,349,107
1900490,306,107
1900501,348,107
1900513,330,107
1900517,326,107
1900532,369,107
1900533,335,107
1900550,371,107
1900563,377,107
1900573,354,107
1900583,401,106
1900594,368,106
1900601,385,106
1900614,410,106
1900618,380,106
1900633,435,106
1900635,429,106
1900650,435,106
1900650,485,106
1900676,451,106
1900684,478,106
1900696,457,106
1900701,390,106
1900717,395,106
1900727,324,106
1900734,311,106
1900748,321,106
1900758,278,106
1900767,320,106
1900778,305,106
1900784,300,106
1900799,336,106
1900801,294,106
1900818,321,106
1900830,319,106
1900834,286,106
1900850,330,106
1900860,294,106
1900866,306,106
1900880,328,106
1900891,287,106
1900901,326,106
1900912,306,106
1900919,294,106
1900919,333,106
1900934,290,106
1900950,321,106
1900963,324,106
1900967,293,106
1900983,336,106
1900994,299,106
1901002,304,106
1901014,323,106
1901024,279,106
1901033,317,106
1901045,296,106
1901050,284,106
1901066,323,106
1901076,283,106
1901083,312,106
1901083,317,106
1901102,288,106
1901117,331,106
1901128,296,106
1901133,304,106
1901148,326,106
1901151,285,106
1901167,325,106
1901179,306,106
1901184,291,106
1901199,330,106
1901209,287,106
1901217,315,106
1901230,317,106
1901240,285,106
1901250,332,106
1901261,299,106
1901267,306,106
1901281,332,106
1901291,291,106
1901302,333,106
1901302,313,106
1901322,299,106
1901332,352,106
1901343,312,106
1901350,328,106
1901363,331,106
1901374,291,106
1901384,330,106
1901394,294,106
1901402,299,106
1901415,323,106
1901425,282,106
1901433,321,106
1901445,301,106
1901456,290,106
1901466,480,108
1901476,658,108
1901484,656,108
1901497,305,108
1901507,213,108
1901517,333,108
1901528,290,108
1901538,289,108
1901548,314,108
1901558,269,108
1901567,309,108
1901579,293,108
1901589,277,108
1901600,320,108
1901610,282,108
1901617,315,108
1901630,327,108
1901640,301,108
1901650,350,108
1901661,320,108
1901667,327,108
1901681,355,108
1901692,314,108
1901700,365,108
1901702,360,108
1901722,354,108
1901733,407,108
1901743,383,108
1901750,423,108
1901764,438,108
1901774,407,108
1901784,445,108
1901795,391,108
1901803,357,108
1901815,352,108
1901825,284,108
1901833,304,108
1901846,282,108
1901850,264,108
1901867,305,108
1901870,266,108
1901885,293,108
1901897,304,108
1901908,271,108
1901916,314,108
1901926,284,108
1901934,287,108
1901934,312,108
1901958,267,108
1901967,303,108
1901979,293,108
1901989,277,108
1902000,321,108
1902011,280,108
1902016,305,108
1902031,313,108
1902034,279,108
1902050,324,108
1902061,292,108
1902071,292,108
1902082,319,108
1902092,276,108
1902100,315,108
1902112,305,108
1902122,288,108
1902134,330,108
1902134,289,108
1902151,314,108
1902151,323,108
1902167,286,108
1902184,332,108
1902194,303,108
1902203,304,108
1902216,334,108
1902226,291,108
1902233,328,108
1902247,317,108
1902257,296,108
1902267,338,108
1902276,295,108
1902283,318,108
1902298,331,108
1902303,295,108
1902317,341,108
1902329,313,108
1902334,312,108
1902334,344,108
1902359,300,108
1902367,337,108
1902379,328,108
1902390,307,108
1902400,347,108
1902411,307,108
1902417,327,108
1902423,338,108
1902441,302,108
1902450,347,108
1902462,317,108
1902467,317,108
1902483,357,108
1902492,319,108
1902500,341,108
1902513,330,108
1902517,303,108
1902533,338,108
1902533,294,108
1902550,313,108
1902565,326,108
1902575,288,108
1902584,332,108
1902595,298,108
1902603,292,108
1902616,442,103
1902626,653,103
1902634,658,103
1902634,344,103
1902657,189,103
1902667,321,103
1902678,282,103
1902683,294,103
1902698,310,103
1902707,271,103
1902717,316,103
1902729,285,103
1902734,282,103
1902749,316,103
1902760,275,103
1902769,313,103
1902780,312,103
1902790,296,103
1902800,346,103
1902804,314,103
1902818,337,103
1902827,357,103
1902842,324,103
1902851,372,103
1902862,352,103
1902868,356,103
1902882,402,103
1902893,372,103
1902900,420,103
1902913,426,103
1902924,405,105
1902934,443,105
1902934,381,105
1902950,362,105
1902964,342,105
1902968,273,105
1902983,299,105
1902996,263,105
1903006,256,105
1903016,294,105
1903026,260,105
1903034,296,105
1903034,295,105
1903050,270,105
1903066,313,105
1903078,274,105
1903084,285,105
1903084,306,105
1903109,268,105
1903117,307,105
1903130,283,105
1903139,282,105
1903150,320,105
1903160,281,105
1903167,317,105
1903180,318,105
1903191,296,105
1903201,340,105
1903212,305,105
1903219,317,105
1903232,330,105
1903241,288,105
1903249,327,105
1903263,302,105
1903273,292,105
1903283,326,105
1903293,284,105
1903300,318,105
1903314,318,105
1903324,294,105
1903334,340,105
1903345,304,105
1903350,320,105
1903365,341,105
1903367,301,105
1903383,341,105
1903396,323,105
1903406,315,105
1903416,352,105
1903427,310,105
1903433,348,105
1903447,351,105
1903458,327,105
1903467,372,105
1903478,340,105
1903484,357,105
1903484,379,105
1903510,341,105
1903517,393,105
1903530,391,105
1903540,380,105
1903550,414,110
1903551,367,110
1903567,388,110
1903577,387,110
1903583,354,110
1903600,398,110
1903611,360,110
1903617,369,110
1903633,392,110
1903643,340,110
1903650,455,110
1903664,658,110
1903673,660,110
1903684,632,110
1903693,249,110
1903700,345,110
1903714,379,110
1903722,337,110
1903734,376,110
1903746,342,110
1903751,352,110
1903765,377,110
1903775,338,110
1903784,382,110
1903796,368,110
1903805,358,110
1903816,402,110
1903826,370,110
1903834,409,110
1903847,418,110
1903850,394,110
1903866,438,110
1903879,407,110
1903884,416,110
1903899,441,110
1903905,406,110
1903918,455,110
1903930,454,110
1903941,458,110
1903950,512,110
1903961,477,110
1903967,500,110
1903982,482,110
1903991,410,110
1904000,410,110
1904012,347,110
1904017,330,110
1904033,340,110
1904043,296,110
1904050,337,110
1904063,327,110
1904074,313,110
1904083,355,110
1904095,312,110
1904100,333,110
1904115,335,110
1904125,296,110
1904133,335,110
1904145,302,110
1904150,307,110
1904166,335,110
1904176,293,110
1904184,329,110
1904184,313,110
1904207,295,110
1904217,333,110
1904227,292,110
1904234,319,110
1904248,329,110
1904258,296,110
1904266,342,110
1904278,309,110
1904289,305,110
1904299,326,110
1904310,276,110
1904318,308,110
1904330,291,110
1904334,271,110
1904350,314,110
1904360,274,110
1904367,300,110
1904382,313,110
1904392,282,110
1904400,327,110
1904412,297,110
1904422,296,110
1904422,323,110
1904443,276,110
1904450,313,110
1904464,302,110
1904474,281,110
1904483,323,110
1904483,280,110
1904501,300,110
1904515,311,110
1904525,275,110
1904534,318,110
1904547,290,110
1904557,290,110
1904566,321,110
1904576,278,110
1904583,316,110
1904596,307,110
1904607,288,110
1904616,326,110
1904628,285,110
1904633,316,110
1904649,339,110
1904659,292,110
1904667,336,110
1904679,303,110
1904689,295,110
1904700,321,110
1904710,275,110
1904716,310,110
1904730,301,110
1904734,278,110
1904749,319,110
1904761,266,110
1904772,368,110
1904782,626,109
1904783,658,109
1904800,452,109
1904805,189,109
1904817,271,109
1904833,316,109
1904835,259,109
1904850,292,109
1904864,284,109
1904874,262,109
1904883,305,109
1904895,266,109
1904905,287,109
1904914,306,109
1904925,273,109
1904933,323,109
1904945,303,109
1904951,304,109
1904966,340,109
1904977,303,109
1904984,339,109
1904998,335,109
1905008,318,109
1905016,372,109
1905028,342,109
1905034,371,109
1905048,404,109
1905059,379,109
1905066,434,109
1905079,414,109
1905090,405,109
1905100,422,109
1905107,349,109
1905118,348,109
1905131,316,109
1905133,272,109
1905151,304,109
1905162,264,109
1905168,278,109
1905175,298,109
1905192,261,109
1905200,304,109
1905207,282,109
1905217,276,109
1905233,312,109
1905243,268,109
1905251,298,109
1905264,296,109
1905274,266,109
1905284,313,109
1905295,277,109
1905300,292,109
1905316,313,109
1905326,270,109
1905334,313,109
1905334,292,109
1905351,284,109
1905367,320,109
1905377,276,109
1905384,307,109
1905398,304,109
1905408,276,109
1905417,322,109
1905429,286,109
1905434,299,109
1905448,320,109
1905459,281,109
1905467,326,109
1905479,308,109
1905490,299,109
1905500,336,109
1905511,293,109
1905520,321,109
1905531,324,109
1905541,291,109
1905550,336,109
1905561,300,109
1905567,311,109
1905567,332,109
1905593,293,109
1905601,334,109
1905608,317,109
1905617,306,109
1905634,344,109
1905644,303,109
1905650,331,109
1905664,334,109
1905676,301,109
1905683,345,109
1905683,312,109
1905701,318,109
1905716,339,109
1905725,295,109
1905734,335,109
1905747,317,109
1905757,305,109
1905767,344,109
1905778,301,109
1905784,327,109
1905798,328,109
1905809,295,109
1905817,340,109
1905828,303,109
1905834,308,109
1905849,333,109
1905860,290,109
1905870,332,109
1905880,316,109
1905883,302,109
1905900,346,109
1905911,315,109
1905919,342,109
1905931,339,109
1905934,303,109
1905950,341,109
1905963,302,109
1905969,304,109
1905984,329,109
1905985,287,109
1906000,328,109
1906014,313,109
1906023,288,109
1906034,344,109
1906045,469,103
1906050,658,103
1906065,655,103
1906067,228,103
1906083,267,103
1906096,298,103
1906101,290,103
1906116,313,103
1906127,269,103
1906133,305,103
1906147,294,103
1906158,274,103
1906167,313,103
1906178,275,103
1906184,301,103
1906199,317,103
1906209,291,103
1906217,347,103
1906229,324,103
1906234,330,103
1906250,363,103
1906251,328,103
1906267,367,103
1906281,360,103
1906284,346,103
1906299,396,103
1906309,366,103
1906317,400,103
1906332,425,103
1906342,397,103
1906350,441,104
1906362,407,104
1906373,384,104
1906383,378,104
1906384,302,104
1906400,310,104
1906415,286,104
1906425,258,104
1906434,302,104
1906434,269,104
1906451,293,104
1906465,315,104
1906467,282,104
1906484,324,104
1906484,292,104
1906500,287,104
1906517,319,104
1906526,273,104
1906534,310,104
1906534,309,104
1906558,293,104
1906567,346,104
1906579,315,104
1906584,342,104
1906584,367,104
1906609,334,104
1906617,380,104
1906630,358,104
1906639,357,104
1906651,390,104
1906660,348,104
1906667,381,104
1906681,374,104
1906691,354,104
1906700,400,104
1906712,361,104
1906723,380,104
1906732,399,104
1906734,360,104
1906750,403,113
1906763,383,113
1906774,379,113
1906784,416,113
1906794,374,113
1906800,408,113
1906814,406,113
1906824,381,113
1906833,426,113
1906845,387,113
1906856,401,113
1906866,419,113
1906876,378,113
1906884,419,113
1906884,397,113
1906907,392,113
1906916,424,113
1906927,380,113
1906934,425,113
1906934,428,113
1906950,391,113
1906967,431,113
1906978,388,113
1906983,393,113
1906999,407,113
1907009,367,113
1907017,407,113
1907030,386,113
1907033,377,113
1907051,408,113
1907061,358,113
1907067,509,113
1907081,659,113
1907092,660,113
1907100,539,113
1907112,262,113
1907119,362,113
1907119,392,113
1907143,341,113
1907151,380,113
1907163,356,113
1907168,342,113
1907184,373,113
1907195,328,113
1907203,355,113
1907209,360,113
1907218,334,113
1907233,384,113
1907246,359,113
1907252,373,113
1907267,398,113
1907268,360,113
1907284,400,113
1907297,379,113
1907300,366,113
1907317,408,113
1907328,374,113
1907334,414,113
1907348,434,113
1907358,419,126
1907367,474,126
1907380,445,126
1907389,444,126
1907400,440,126
1907410,360,126
1907418,361,126
1907430,315,126
1907441,280,126
1907451,309,126
1907451,263,126
1907467,289,126
1907482,297,126
1907484,268,126
1907500,313,126
1907510,278,126
1907517,283,126
1907533,307,126
1907543,264,126
1907550,300,126
1907564,285,126
1907574,268,126
1907584,308,126
1907584,262,126
1907600,284,126
1907616,288,126
1907625,251,126
1907634,300,126
1907646,274,126
1907656,279,126
1907667,308,126
1907677,265,126
1907684,302,126
1907697,287,126
1907707,265,126
1907717,302,126
1907728,257,126
1907733,277,126
1907733,285,126
1907759,249,126
1907767,297,126
1907780,268,126
1907789,273,126
1907800,302,126
1907810,258,126
1907817,294,126
1907831,282,126
1907842,261,126
1907850,304,126
1907861,264,126
1907869,286,126
1907882,300,126
1907883,261,126
1907901,305,126
1907914,275,126
1907923,276,126
1907933,305,126
1907933,262,126
1907951,301,126
1907951,293,126
1907975,275,126
1907985,318,126
1907985,278,126
1908000,296,126
1908011,308,126
1908026,270,126
1908034,315,126
1908034,290,126
1908057,288,126
1908067,322,126
1908075,293,126
1908083,332,126
1908097,316,126
1908100,292,126
1908117,327,126
1908128,283,126
1908134,298,126
1908134,312,126
1908158,275,126
1908167,319,126
1908179,296,126
1908190,281,126
1908200,340,126
1908211,483,113
1908218,658,113
1908231,636,113
1908241,201,113
1908250,277,113
1908262,286,113
1908267,292,113
1908283,305,113
1908284,263,113
1908301,310,113
1908313,285,113
1908318,278,113
1908333,314,113
1908334,271,113
1908350,309,113
1908365,311,113
1908367,290,113
1908384,338,113
1908395,307,113
1908401,325,113
1908416,348,113
1908427,310,113
1908434,355,113
1908434,339,113
1908457,341,113
1908467,390,113
1908476,362,113
1908484,408,113
1908498,418,113
1908509,397,113
1908517,440,120
1908523,393,120
1908539,384,120
1908549,372,120
1908551,304,120
1908567,326,120
1908577,292,120
1908584,274,120
1908600,309,120
1908611,263,120
1908617,293,120
1908631,294,120
1908642,263,120
1908651,312,120
1908662,276,120
1908670,286,120
1908683,308,120
1908693,264,120
1908700,303,120
1908713,280,120
1908724,269,120
1908734,307,120
1908734,263,120
1908750,291,120
1908765,296,120
1908775,267,120
1908784,313,120
1908784,279,120
1908801,287,120
1908816,306,120
1908827,261,120
1908833,298,120
1908833,279,120
1908857,264,120
1908866,305,120
1908878,264,120
1908884,295,120
1908898,302,120
1908908,272,120
1908917,319,120
1908919,288,120
1908935,293,120
1908950,315,120
1908951,270,120
1908968,307,120
1908977,292,120
1908984,277,120
1909001,318,120
1909011,276,120
1909017,303,120
1909031,312,120
1909043,280,120
1909050,326,120
1909063,294,120
1909073,301,120
1909083,326,120
1909093,284,120
1909100,324,120
1909114,312,120
1909124,297,120
1909134,338,120
1909134,297,120
1909150,322,120
1909165,327,120
1909176,293,120
1909184,336,120
1909184,308,120
1909201,309,120
1909216,335,120
1909227,296,120
1909234,342,120
1909248,335,120
1909258,314,120
1909267,354,120
1909273,305,120
1909283,322,120
1909299,329,120
1909301,292,120
1909318,336,120
1909330,304,120
1909334,305,120
1909350,332,120
1909360,288,120
1909368,458,109
1909380,658,109
1909391,658,109
1909400,380,109
1909412,213,109
1909417,318,109
1909422,331,109
1909443,291,109
1909451,335,109
1909451,305,109
1909467,307,109
1909484,339,109
1909493,298,109
1909500,338,109
1909514,332,109
1909525,314,109
1909534,366,109
1909545,332,109
1909555,356,109
1909566,375,109
1909575,343,109
1909584,392,109
1909596,372,109
1909607,373,109
1909617,412,109
1909628,376,109
1909633,425,109
1909648,436,109
1909657,419,109
1909668,474,109
1909678,441,122
1909689,452,122
1909699,448,122
1909700,382,122
1909718,392,122
1909730,339,122
1909740,318,122
1909750,342,122
1909761,294,122
1909768,326,122
1909781,325,122
1909791,303,122
1909800,347,122
1909812,311,122
1909817,327,122
1909832,345,122
1909834,312,122
1909850,354,122
1909863,335,122
1909874,330,122
1909883,366,122
1909894,327,122
1909900,359,122
1909914,355,122
1909925,331,122
1909933,376,122
1909945,341,122
1909956,357,122
1909965,376,122
1909970,335,122
1909983,375,122
1909997,353,122
1910001,343,122
1910017,378,122
1910027,337,122
1910034,366,122
1910048,367,122
1910058,342,122
1910067,388,122
1910079,353,122
1910083,366,122
1910100,387,122
1910110,345,122
1910117,385,122
1910130,364,122
1910140,351,122
1910151,388,122
1910161,349,122
1910167,381,122
1910167,384,122
1910192,356,122
1910200,405,117
1910213,378,117
1910217,387,117
1910233,405,117
1910243,359,117
1910251,390,117
1910251,364,117
1910267,351,117
1910284,390,117
1910295,345,117
1910301,371,117
1910314,374,117
1910324,337,117
1910334,383,117
1910346,504,117
1910351,659,117
1910366,659,117
1910375,358,117
1910385,285,117
1910397,351,117
1910401,334,117
1910417,364,117
1910428,320,117
1910433,340,117
1910449,344,117
1910459,309,117
1910467,346,117
1910471,313,117
1910490,318,117
1910501,347,117
1910501,311,117
1910517,357,117
1910531,350,117
1910540,338,117
1910550,381,117
1910561,343,117
1910567,369,117
1910575,380,117
1910593,351,117
1910600,404,131
1910600,384,131
1910623,397,131
1910633,437,131
1910644,401,131
1910650,439,131
1910650,418,131
1910668,369,131
1910684,372,131
1910694,299,131
1910701,294,131
1910715,288,131
1910726,244,131
1910734,292,131
1910746,265,131
1910757,274,131
1910767,305,131
1910776,264,131
1910784,302,131
1910798,292,131
1910808,268,131
1910817,309,131
1910828,268,131
1910834,286,131
1910834,295,131
1910859,258,131
1910867,301,131
1910877,271,131
1910883,266,131
1910900,300,131
1910911,258,131
1910916,296,131
1910924,290,131
1910941,271,131
1910950,316,131
1910962,276,131
1910972,290,131
1910982,301,131
1910992,262,131
1911000,301,131
1911013,272,131
1911024,267,131
1911033,303,131
1911044,260,131
1911050,296,131
1911050,295,131
1911067,274,131
1911083,317,131
1911095,275,131
1911101,292,131
1911116,308,131
1911126,269,131
1911134,313,131
1911146,290,131
1911157,284,131
1911167,320,131
1911178,280,131
1911184,311,131
1911197,308,131
1911208,281,131
1911217,324,131
1911228,285,131
1911239,300,131
1911249,322,131
1911260,282,131
1911268,328,131
1911280,304,131
1911290,297,131
1911300,331,131
1911311,286,131
1911318,316,131
1911318,319,131
1911342,290,131
1911350,337,131
1911362,301,131
1911368,312,131
1911383,341,131
1911393,309,131
1911401,350,131
1911413,324,131
1911423,314,131
1911434,343,131
1911444,295,131
1911450,321,131
1911450,323,131
1911475,294,131
1911484,337,131
1911484,301,131
1911500,304,131
1911516,340,131
1911527,461,116
1911533,658,116
1911547,657,116
1911558,275,116
1911567,274,116
1911577,295,116
1911584,311,116
1911598,307,116
1911609,274,116
1911616,323,116
1911629,291,116
1911639,300,116
1911650,325,116
1911659,285,116
1911667,329,116
1911679,319,116
1911690,310,116
1911701,353,116
1911711,318,116
1911717,347,116
1911732,354,116
1911742,323,116
1911751,372,116
1911763,346,116
1911773,359,116
1911783,397,116
1911784,369,116
1911801,422,116
1911813,420,116
1911824,407,116
1911833,446,118
1911845,399,118
1911850,405,118
1911866,386,118
1911867,322,118
1911884,345,118
1911884,300,118
1911906,292,118
1911916,318,118
1911927,272,118
1911934,310,118
1911934,298,118
1911957,278,118
1911966,319,118
1911978,279,118
1911984,301,118
1911998,311,118
1912000,275,118
1912018,320,118
1912029,291,118
1912039,292,118
1912050,323,118
1912060,277,118
1912067,313,118
1912080,304,118
1912084,283,118
1912101,327,118
1912112,286,118
1912117,306,118
1912126,318,118
1912143,279,118
1912150,321,118
1912164,295,118
1912173,291,118
1912183,324,118
1912193,283,118
1912201,320,118
1912214,316,118
1912220,294,118
1912234,340,118
1912245,301,118
1912251,317,118
1912265,329,118
1912276,289,118
1912284,331,118
1912296,307,118
1912307,302,118
1912317,337,118
1912327,295,118
1912334,330,118
1912348,323,118
1912358,298,118
1912367,343,118
1912379,304,118
1912384,319,118
1912399,335,118
1912408,296,118
1912419,337,118
1912419,313,118
1912440,304,118
1912450,339,118
1912451,295,118
1912467,327,118
1912482,323,118
1912491,298,118
1912501,341,118
1912512,302,118
1912517,313,118
1912524,329,118
1912542,286,118
1912551,330,118
1912563,317,118
1912573,312,118
1912583,342,118
1912595,296,118
1912600,320,118
1912615,314,118
1912624,284,118
1912633,327,118
1912644,292,118
1912656,302,118
1912666,323,118
1912676,277,118
1912683,315,118
1912697,414,106
1912706,655,106
1912717,658,106
1912727,334,106
1912734,220,106
1912748,306,106
1912759,276,106
1912767,310,106
1912778,274,106
1912789,281,106
1912799,304,106
1912809,264,106
1912818,304,106
1912830,288,106
1912840,280,106
1912850,324,106
1912861,287,106
1912866,321,106
1912882,330,106
1912884,303,106
1912901,353,106
1912901,327,106
1912923,340,106
1912932,372,106
1912943,334,106
1912950,380,106
1912963,377,106
1912974,375,106
1912984,425,106
1912994,391,106
1913000,419,106
1913014,422,106
1913025,372,106
1913033,384,106
1913046,318,106
1913056,294,106
1913067,300,106
1913076,245,106
1913083,285,106
1913097,276,106
1913107,265,106
1913117,310,106
1913128,274,106
1913134,301,106
1913149,310,106
1913159,274,106
1913168,315,106
1913168,284,106
1913184,289,106
1913200,323,106
1913210,286,106
1913217,330,106
1913230,326,106
1913241,311,106
1913251,355,106
1913251,314,106
1913267,337,106
1913282,351,106
1913284,316,106
1913300,356,106
1913312,326,106
1913317,322,106
1913333,353,106
1913344,312,106
1913350,348,106
1913350,343,106
1913374,324,106
1913384,365,106
1913384,332,106
1913401,351,106
1913401,368,106
1913418,334,106
1913434,379,106
1913434,355,106
1913456,352,106
1913466,383,106
1913476,342,106
1913483,379,106
1913498,375,106
1913500,352,106
1913518,401,113
1913528,373,113
1913534,393,113
1913534,406,113
1913551,367,113
1913568,403,113
1913580,373,113
1913590,366,113
1913600,401,113
1913610,356,113
1913618,389,113
1913631,386,113
1913641,356,113
1913650,399,113
1913662,496,113
1913670,659,113
1913683,660,113
1913692,449,113
1913701,288,113
1913713,354,113
1913723,352,113
1913733,378,113
1913744,334,113
1913751,366,113
1913751,368,113
1913775,343,113
1913784,391,113
1913784,358,113
1913800,370,113
1913816,392,113
1913826,356,113
1913834,408,112
1913834,397,112
1913857,393,112
1913867,436,112
1913877,395,112
1913883,425,112
1913898,424,112
1913908,396,112
1913918,443,112
1913929,417,112
1913934,439,112
1913949,474,112
1913959,442,112
1913968,482,112
1913980,456,112
1913990,416,112
1914000,418,112
1914011,339,112
1914018,338,112
1914031,328,112
1914034,290,112
1914050,333,112
1914062,301,112
1914069,314,112
1914082,342,112
1914093,303,112
1914100,342,112
1914113,322,112
1914118,304,112
1914134,336,112
1914144,290,112
1914150,314,112
1914165,319,112
1914170,288,112
1914184,329,112
1914196,295,112
1914199,297,112
1914216,323,112
1914226,282,112
1914234,322,112
1914247,312,112
1914257,296,112
1914267,338,112
1914277,296,112
1914283,316,112
1914298,321,112
1914300,279,112
1914319,317,112
1914330,283,112
1914339,282,112
1914349,307,112
1914351,265,112
1914367,306,112
1914377,294,112
1914384,279,112
1914400,322,112
1914411,281,112
1914418,301,112
1914432,309,112
1914441,272,112
1914450,316,112
1914462,291,112
1914473,291,112
1914483,320,112
1914493,278,112
1914501,323,112
1914514,322,112
1914522,298,112
1914533,336,112
1914545,289,112
1914551,299,112
1914565,310,112
1914571,269,112
1914583,313,112
1914596,287,112
1914606,282,112
1914616,316,112
1914627,263,112
1914633,343,112
1914647,552,113
1914657,657,113
1914667,573,113
1914678,175,113
1914683,263,113
1914699,308,113
1914709,259,113
1914719,302,113
1914729,277,113
1914740,273,113
1914749,306,113
1914760,262,113
1914768,299,113
1914780,294,113
1914790,271,113
1914800,321,113
1914800,289,113
1914819,312,113
1914827,335,113
1914833,298,113
1914850,342,113
1914863,323,113
1914867,319,113
1914883,357,113
1914884,325,113
1914900,369,113
1914914,381,113
1914918,369,113
1914934,422,113
1914944,390,113
1914950,402,113
1914965,408,113
1914976,339,113
1914983,348,113
1914996,300,113
1915007,271,113
1915017,295,113
1915026,247,113
1915034,278,113
1915047,281,113
1915058,254,113
1915067,300,113
1915078,266,113
1915084,280,113
1915099,302,113
1915109,260,113
1915119,301,113
1915119,282,113
1915135,268,113
1915150,307,113
1915161,265,113
1915166,296,113
1915181,296,113
1915191,265,113
1915200,311,113
1915211,278,113
1915222,286,113
1915233,309,113
1915243,269,113
1915250,306,113
1915263,290,113
1915273,276,113
1915283,316,113
1915294,273,113
1915300,299,113
1915315,306,113
1915325,275,113
1915333,320,113
1915345,289,113
1915356,299,113
1915365,326,113
1915376,284,113
1915384,324,113
1915384,308,113
1915401,292,113
1915417,330,113
1915427,287,113
1915433,314,113
1915448,322,113
1915458,289,113
1915466,335,113
1915478,307,113
1915484,310,113
1915484,339,113
1915510,299,113
1915519,337,113
1915531,325,113
1915540,306,113
1915550,346,113
1915561,302,113
1915567,325,113
1915573,332,113
1915583,296,113
1915601,339,113
1915607,310,113
1915622,314,113
1915633,345,113
1915643,300,113
1915651,339,113
1915664,338,113
1915674,323,113
1915683,359,113
1915694,316,113
1915700,332,113
