Timestamp,ECGValue,BPM
2060164,320,102
2060174,291,102
2060184,324,102
2060184,285,102
2060205,301,102
2060216,308,102
2060226,272,102
2060233,312,102
2060233,286,102
2060251,286,102
2060266,318,102
2060278,284,102
2060283,319,102
2060298,318,102
2060300,307,102
2060317,354,102
2060328,327,102
2060333,359,102
2060350,391,102
2060360,376,102
2060369,437,102
2060380,431,102
2060390,439,102
2060400,474,102
2060411,433,102
2060421,454,102
2060431,425,102
2060434,369,102
2060450,371,102
2060450,307,102
2060473,310,102
2060483,320,102
2060484,294,102
2060500,345,102
2060513,330,102
2060518,330,102
2060533,355,102
2060544,306,102
2060552,327,102
2060562,308,102
2060567,277,102
2060584,316,102
2060596,282,102
2060599,309,102
2060616,333,102
2060626,304,102
2060633,350,102
2060647,318,102
2060655,311,102
2060667,330,102
2060677,277,102
2060683,304,102
2060699,290,102
2060701,266,102
2060717,313,102
2060729,275,102
2060733,296,102
2060749,311,102
2060750,275,102
2060767,315,102
2060780,286,102
2060791,281,102
2060800,312,102
2060812,261,102
2060821,298,102
2060832,288,102
2060834,262,102
2060851,307,102
2060862,265,102
2060868,284,102
2060883,299,102
2060894,265,102
2060899,316,102
2060914,294,102
2060924,295,102
2060933,327,102
2060945,278,102
2060955,309,102
2060965,296,102
2060975,266,102
2060983,311,102
2060996,271,102
2061000,293,102
2061016,314,102
2061027,278,102
2061033,327,102
2061047,302,102
2061058,301,102
2061067,336,102
2061078,289,102
2061084,326,102
2061098,318,102
2061101,294,102
2061116,343,102
2061126,307,102
2061133,326,102
2061150,342,102
2061161,311,102
2061166,361,102
2061181,322,102
2061191,314,102
2061201,344,102
2061201,291,102
2061222,327,102
2061232,323,102
2061242,300,102
2061249,347,102
2061263,307,102
2061273,325,102
2061283,337,102
2061294,400,102
2061301,658,103
2061301,659,103
2061325,458,103
2061333,264,103
2061345,309,103
2061355,352,103
2061366,332,103
2061376,305,103
2061383,350,103
2061396,309,103
2061407,324,103
2061417,344,103
2061427,308,103
2061433,363,103
2061448,350,103
2061451,356,103
2061467,400,103
2061479,356,103
2061484,388,103
2061499,380,103
2061501,347,103
2061517,392,103
2061530,354,103
2061540,377,103
2061550,413,103
2061553,390,103
2061567,458,103
2061581,455,103
2061592,462,103
2061600,501,103
2061612,449,103
2061622,459,103
2061633,417,103
2061633,347,103
2061650,354,103
2061663,288,103
2061674,290,103
2061684,307,103
2061694,269,103
2061701,321,103
2061701,305,103
2061725,305,103
2061734,347,103
2061746,297,103
2061756,322,103
2061766,311,103
2061777,271,103
2061783,307,103
2061797,261,103
2061807,273,103
2061817,296,103
2061819,259,103
2061834,308,103
2061834,286,103
2061850,277,103
2061867,311,103
2061879,259,103
2061889,292,103
2061900,295,103
2061901,276,103
2061917,334,103
2061931,307,103
2061941,328,103
2061950,349,103
2061961,299,103
2061967,325,103
2061982,278,103
2061993,245,103
2062000,264,103
2062012,206,103
2062023,240,103
2062033,253,103
2062043,244,103
2062050,311,103
2062064,289,103
2062074,313,103
2062083,330,103
2062094,278,103
2062102,312,103
2062115,274,103
2062126,253,103
2062133,280,103
2062147,235,103
2062157,269,103
2062167,274,103
2062177,255,103
2062183,315,103
2062197,288,103
2062207,305,103
2062217,325,103
2062228,279,103
2062238,311,103
2062248,280,103
2062259,259,103
2062269,296,103
2062279,253,103
2062284,289,103
2062300,295,103
2062311,270,103
2062317,319,103
2062331,285,103
2062333,298,103
2062351,315,103
2062361,283,103
2062372,333,103
2062382,313,103
2062392,294,103
2062400,328,103
2062400,274,103
2062423,296,103
2062434,292,103
2062444,261,103
2062450,306,103
2062464,270,103
2062473,285,103
2062483,300,103
2062495,263,103
2062500,461,101
2062516,658,101
2062525,654,101
2062534,283,101
2062534,189,101
2062550,293,101
2062566,288,101
2062577,247,101
2062584,294,101
2062584,258,101
2062608,271,101
2062618,298,101
2062628,261,101
2062633,311,101
2062649,297,101
2062650,296,101
2062666,345,101
2062680,308,101
2062684,341,101
2062700,352,101
2062710,333,101
2062717,391,101
2062731,367,101
2062742,392,101
2062750,427,101
2062761,396,101
2062772,444,101
2062782,441,101
2062793,440,101
2062800,491,101
2062814,456,101
2062824,481,101
2062833,468,101
2062844,406,101
2062850,419,101
2062850,354,101
2062875,344,101
2062883,356,101
2062896,304,101
2062906,344,101
2062916,322,101
2062926,310,101
2062934,353,101
2062946,312,101
2062957,343,101
2062967,356,101
2062978,327,101
2062984,381,101
2062998,349,101
2063008,356,101
2063017,381,101
2063029,336,101
2063039,377,101
2063050,362,101
2063059,352,101
2063066,393,101
2063080,351,101
2063090,380,101
2063100,386,101
2063111,348,101
2063117,393,101
2063131,352,101
2063141,353,101
2063150,376,101
2063162,330,101
2063167,371,101
2063183,358,101
2063193,344,101
2063200,389,101
2063213,348,101
2063224,385,101
2063233,392,101
2063244,353,101
2063250,398,101
2063264,369,101
2063275,373,101
2063283,393,101
2063296,349,101
2063306,380,101
2063316,357,101
2063317,341,101
2063333,386,101
2063347,341,101
2063357,367,101
2063366,371,101
2063378,329,101
2063383,364,101
2063398,445,107
2063400,658,107
2063418,659,107
2063430,415,107
2063433,251,107
2063449,332,107
2063460,323,107
2063467,359,107
2063481,312,107
2063484,338,107
2063500,346,107
2063511,311,107
2063517,357,107
2063526,324,107
2063534,328,107
2063550,359,107
2063550,312,107
2063573,362,107
2063584,355,107
2063593,341,107
2063600,388,107
2063614,349,107
2063625,372,107
2063634,375,107
2063634,339,107
2063650,398,107
2063666,383,107
2063668,402,107
2063684,448,107
2063684,413,107
2063699,460,107
2063717,439,107
2063727,389,107
2063733,392,107
2063748,309,107
2063757,306,107
2063766,295,107
2063778,250,107
2063783,295,107
2063799,266,107
2063809,274,107
2063818,309,107
2063830,266,107
2063834,311,107
2063849,300,107
2063861,279,107
2063867,323,107
2063878,276,107
2063891,299,107
2063900,305,107
2063912,270,107
2063917,320,107
2063924,288,107
2063933,286,107
2063951,318,107
2063964,273,107
2063968,312,107
2063983,304,107
2063983,286,107
2064000,329,107
2064014,286,107
2064017,312,107
2064034,323,107
2064034,284,107
2064050,331,107
2064066,300,107
2064076,297,107
2064083,325,107
2064097,276,107
2064107,317,107
2064117,304,107
2064122,286,107
2064133,335,107
2064147,292,107
2064159,316,107
2064167,329,107
2064179,291,107
2064188,339,107
2064199,305,107
2064210,304,107
2064216,335,107
2064230,288,107
2064241,325,107
2064250,312,107
2064260,289,107
2064268,330,107
2064281,284,107
2064283,307,107
2064300,317,107
2064311,281,107
2064317,331,107
2064332,302,107
2064342,303,107
2064350,334,107
2064363,287,107
2064374,325,107
2064383,313,107
2064394,290,107
2064400,335,107
2064400,296,107
2064425,321,107
2064433,331,107
2064433,295,107
2064450,345,107
2064466,327,107
2064476,317,107
2064483,341,107
2064496,294,107
2064507,324,107
2064516,312,107
2064527,288,107
2064533,333,107
2064548,289,107
2064550,310,107
2064568,323,107
2064579,274,107
2064584,362,107
2064600,538,109
2064610,658,109
2064617,629,109
2064630,196,109
2064634,282,109
2064651,309,109
2064651,272,109
2064666,317,109
2064681,274,109
2064685,296,109
2064700,315,109
2064712,277,109
2064723,326,109
2064732,296,109
2064744,296,109
2064749,334,109
2064764,292,109
2064774,339,109
2064784,337,109
2064794,317,109
2064800,365,109
2064815,326,109
2064825,350,109
2064834,370,109
2064846,337,109
2064850,395,109
2064866,383,109
2064877,395,109
2064883,441,109
2064897,397,109
2064901,435,109
2064917,418,109
2064927,369,109
2064934,381,109
2064948,310,109
2064959,306,109
2064967,307,109
2064980,259,109
2064985,307,109
2065000,278,109
2065000,276,109
2065017,308,109
2065030,261,109
2065034,297,109
2065051,289,109
2065062,262,109
2065067,308,109
2065082,265,109
2065092,283,109
2065100,299,109
2065113,261,109
2065122,307,109
2065132,275,109
2065144,272,109
2065150,302,109
2065164,252,109
2065171,290,109
2065184,281,109
2065195,257,109
2065200,303,109
2065216,260,109
2065226,278,109
2065234,293,109
2065245,251,109
2065257,297,109
2065267,268,109
2065277,266,109
2065283,302,109
2065298,257,109
2065300,295,109
2065317,293,109
2065329,271,109
2065334,316,109
2065349,271,109
2065359,288,109
2065367,301,109
2065380,260,109
2065390,306,109
2065400,281,109
2065411,280,109
2065417,315,109
2065431,270,109
2065441,306,109
2065450,300,109
2065462,272,109
2065472,318,109
2065482,278,109
2065493,298,109
2065500,314,109
2065513,277,109
2065523,327,109
2065533,299,109
2065544,299,109
2065550,334,109
2065564,287,109
2065574,322,109
2065583,315,109
2065595,290,109
2065600,334,109
2065616,293,109
2065625,312,109
2065634,329,109
2065647,288,109
2065656,335,109
2065666,310,109
2065677,310,109
2065684,345,109
2065698,304,109
2065708,353,109
2065718,343,109
2065719,311,109
2065734,355,109
2065750,309,109
2065751,326,109
2065767,342,109
2065780,305,109
2065784,349,109
2065801,327,109
2065811,323,109
2065817,348,109
2065831,350,109
2065841,614,104
2065850,659,104
2065862,613,104
2065873,260,104
2065882,278,104
2065883,338,104
2065900,341,104
2065913,296,104
2065917,344,104
2065933,321,104
2065945,316,104
2065951,350,104
2065951,310,104
2065975,352,104
2065983,357,104
2065995,340,104
2066006,394,104
2066016,357,104
2066026,377,104
2066033,399,104
2066047,359,104
2066057,407,104
2066067,389,104
2066077,393,104
2066084,439,104
2066098,409,104
2066109,455,104
2066117,465,104
2066128,452,104
2066134,501,104
2066149,456,104
2066159,463,104
2066167,453,104
2066180,374,104
2066190,389,104
2066200,343,104
2066200,318,104
2066217,347,104
2066227,298,104
2066243,333,104
2066251,327,104
2066251,302,104
2066273,348,104
2066283,305,104
2066293,325,104
2066300,341,104
2066313,305,104
2066324,353,104
2066334,330,104
2066334,329,104
2066350,368,104
2066364,324,104
2066375,360,104
2066383,357,104
2066395,331,104
2066407,377,104
2066416,337,104
2066426,353,104
2066433,369,104
2066447,326,104
2066457,367,104
2066466,343,104
2066470,336,104
2066484,374,104
2066499,330,104
2066509,366,104
2066517,363,104
2066523,336,104
2066540,380,104
2066550,340,104
2066559,354,104
2066568,371,104
2066580,329,104
2066584,373,104
2066599,348,104
2066612,340,104
2066617,380,104
2066633,334,104
2066642,368,104
2066650,377,104
2066663,355,104
2066673,395,104
2066683,349,104
2066694,360,104
2066700,369,104
2066715,325,104
2066724,370,104
2066733,348,104
2066745,342,104
2066750,380,104
2066750,331,104
2066767,351,104
2066784,385,104
2066784,574,109
2066807,659,109
2066817,642,109
2066826,237,109
2066833,310,109
2066849,315,109
2066851,354,109
2066867,326,109
2066878,318,109
2066884,353,109
2066899,305,109
2066901,335,109
2066917,332,109
2066930,302,109
2066934,347,109
2066950,312,109
2066960,333,109
2066967,360,109
2066973,323,109
2066992,371,109
2067000,349,109
2067012,345,109
2067017,386,109
2067023,346,109
2067043,389,109
2067051,396,109
2067064,388,109
2067073,451,109
2067083,423,109
2067093,447,109
2067100,464,109
2067100,402,109
2067117,409,109
2067133,342,109
2067133,301,109
2067150,312,109
2067166,253,109
2067176,285,109
2067183,285,109
2067197,261,109
2067200,313,109
2067216,280,109
2067228,296,109
2067234,315,109
2067249,270,109
2067258,314,109
2067267,289,109
2067279,279,109
2067284,315,109
2067300,267,109
2067310,302,109
2067317,303,109
2067326,273,109
2067333,321,109
2067350,283,109
2067361,297,109
2067367,317,109
2067382,275,109
2067391,320,109
2067400,297,109
2067400,290,109
2067423,327,109
2067433,277,109
2067444,309,109
2067450,306,109
2067463,273,109
2067474,315,109
2067484,275,109
2067495,287,109
2067500,307,109
2067515,267,109
2067525,315,109
2067533,295,109
2067546,286,109
2067556,324,109
2067566,277,109
2067577,309,109
2067584,306,109
2067598,275,109
2067608,321,109
2067617,278,109
2067627,292,109
2067634,312,109
2067634,271,109
2067658,318,109
2067667,294,109
2067679,286,109
2067690,326,109
2067700,281,109
2067710,314,109
2067717,314,109
2067731,285,109
2067741,330,109
2067750,291,109
2067761,304,109
2067769,327,109
2067782,284,109
2067792,329,109
2067801,308,109
2067813,302,109
2067822,342,109
2067833,294,109
2067843,327,109
2067849,339,109
2067864,308,109
2067874,346,109
2067884,306,109
2067884,313,109
2067900,331,109
2067915,288,109
2067926,331,109
2067934,308,109
2067934,300,109
2067956,338,109
2067967,282,109
2067977,332,109
2067984,505,109
2067984,658,109
2068008,655,109
2068017,251,109
2068026,257,109
2068033,335,109
2068049,280,109
2068059,319,109
2068066,299,109
2068079,288,109
2068084,325,109
2068100,280,109
2068111,313,109
2068116,314,109
2068131,287,109
2068141,338,109
2068150,307,109
2068150,324,109
2068167,350,109
2068176,311,109
2068193,361,109
2068201,342,109
2068214,337,109
2068220,380,109
2068233,342,109
2068244,388,109
2068249,401,109
2068265,386,109
2068275,444,109
2068283,408,109
2068295,420,109
2068305,431,109
2068316,367,109
2068327,381,109
2068333,331,109
2068346,301,109
2068351,327,109
2068367,274,109
2068377,303,109
2068383,302,109
2068397,268,109
2068409,314,109
2068417,273,109
2068428,284,109
2068439,304,109
2068448,258,109
2068459,302,109
2068466,281,109
2068470,270,109
2068484,313,109
2068500,270,109
2068500,310,109
2068521,313,109
2068530,283,109
2068542,329,109
2068550,284,109
2068562,293,109
2068567,314,109
2068583,267,109
2068584,309,109
2068600,285,109
2068613,273,109
2068617,314,109
2068633,269,109
2068645,303,109
2068650,305,109
2068665,276,109
2068675,324,109
2068684,284,109
2068695,296,109
2068700,317,109
2068716,273,109
2068724,317,109
2068734,294,109
2068746,282,109
2068757,323,109
2068767,276,109
2068778,309,109
2068784,310,109
2068799,279,109
2068808,324,109
2068818,281,109
2068821,291,109
2068834,311,109
2068850,268,109
2068850,313,109
2068867,292,109
2068876,284,109
2068891,327,109
2068900,285,109
2068900,317,109
2068917,314,109
2068926,281,109
2068933,327,109
2068951,286,109
2068962,297,109
2068967,320,109
2068982,279,109
2068984,325,109
2069001,304,109
2069014,297,109
2069017,337,109
2069035,290,109
2069044,323,109
2069051,323,109
2069065,295,109
2069076,343,109
2069084,303,109
2069096,316,109
2069107,353,109
2069117,315,109
2069127,353,109
2069134,331,109
2069147,316,109
2069158,349,109
2069167,301,109
2069177,330,109
2069185,327,109
2069198,303,109
2069209,351,109
2069217,305,109
2069230,324,109
2069240,502,102
2069250,658,102
2069259,658,102
2069266,321,102
2069281,224,102
2069292,343,102
2069299,292,102
2069311,317,102
2069318,321,102
2069332,291,102
2069342,339,102
2069350,302,102
2069350,317,102
2069373,342,102
2069383,307,102
2069393,361,102
2069401,347,102
2069401,342,102
2069425,386,102
2069433,346,102
2069446,385,102
2069450,389,102
2069466,363,102
2069476,419,102
2069485,390,102
2069496,416,102
2069507,450,102
2069516,421,102
2069527,478,102
2069534,464,102
2069534,452,102
2069558,487,102
2069567,426,102
2069578,429,102
2069588,397,102
2069599,339,102
2069609,368,102
2069616,318,102
2069630,329,102
2069640,349,102
2069650,309,102
2069661,357,102
2069669,335,102
2069669,328,102
2069685,370,102
2069700,325,102
2069711,359,102
2069722,362,102
2069732,332,102
2069743,383,102
2069750,344,102
2069764,358,102
2069774,378,102
2069784,336,102
2069794,384,102
2069800,363,102
2069815,354,102
2069820,391,102
2069834,343,102
2069845,369,102
2069851,364,102
2069865,327,102
2069872,373,102
2069885,335,102
2069885,347,102
2069901,369,102
2069916,329,102
2069927,374,102
2069935,354,102
2069948,344,102
2069958,384,102
2069967,337,102
2069971,369,102
2069985,370,102
2069999,337,102
2070000,383,102
2070017,345,102
2070027,351,102
2070034,373,102
2070050,338,102
2070061,388,102
2070067,364,102
2070082,352,102
2070091,386,102
2070100,329,102
2070112,351,102
2070122,350,102
2070133,317,102
2070143,362,102
2070151,323,102
2070164,333,102
2070173,341,102
2070183,340,102
2070195,605,107
2070201,659,107
2070201,612,107
2070224,255,107
2070234,264,107
2070245,337,107
2070256,326,107
2070266,292,107
2070277,338,107
2070286,297,107
2070297,308,107
2070307,327,107
2070316,285,107
2070328,328,107
2070333,306,107
2070348,296,107
2070358,348,107
2070367,311,107
2070367,346,107
2070386,352,107
2070386,326,107
2070410,375,107
2070417,345,107
2070430,360,107
2070434,390,107
2070450,359,107
2070461,419,107
2070467,412,107
2070481,414,107
2070487,460,107
2070500,412,107
2070513,426,107
2070518,389,107
2070533,317,107
2070544,332,107
2070551,270,107
2070551,268,107
2070568,287,107
2070583,247,107
2070595,295,107
2070600,277,107
2070615,270,107
2070626,312,107
2070633,266,107
2070646,294,107
2070651,294,107
2070667,259,107
2070677,303,107
2070687,264,107
2070697,273,107
2070701,298,107
2070717,256,107
2070728,300,107
2070738,280,107
2070748,270,107
2070759,313,107
2070767,268,107
2070779,302,107
2070787,302,107
2070800,269,107
2070810,314,107
2070817,274,107
2070831,282,107
2070841,300,107
2070851,254,107
2070851,300,107
2070868,281,107
2070882,272,107
2070892,313,107
2070901,271,107
2070913,307,107
2070916,310,107
2070933,277,107
2070933,323,107
2070950,281,107
2070965,290,107
2070974,313,107
2070984,271,107
2070995,319,107
2071005,301,107
2071016,292,107
2071025,331,107
2071033,286,107
2071046,317,107
2071056,315,107
2071067,278,107
2071077,325,107
2071084,285,107
2071097,297,107
2071100,323,107
2071117,282,107
2071127,331,107
2071133,312,107
2071149,303,107
2071160,342,107
2071167,293,107
2071180,325,107
2071189,323,107
2071200,293,107
2071210,341,107
2071216,302,107
2071231,316,107
2071241,341,107
2071250,298,107
2071262,344,107
2071272,322,107
2071282,315,107
2071293,365,107
2071300,319,107
2071313,346,107
2071323,343,107
2071334,309,107
2071344,350,107
2071351,311,107
2071351,327,107
2071375,349,107
2071384,306,107
2071395,351,107
2071400,326,107
2071417,311,107
2071426,473,107
2071434,657,107
2071446,659,107
2071457,412,107
2071466,216,107
2071478,352,107
2071484,311,107
2071488,312,107
2071508,331,107
2071517,285,107
2071529,328,107
2071535,306,107
2071535,298,107
2071560,341,107
2071567,298,107
2071581,335,107
2071589,340,107
2071600,314,107
2071611,364,107
2071616,329,107
2071632,341,107
2071641,365,107
2071650,325,107
2071663,374,107
2071671,359,107
2071683,360,107
2071693,413,107
2071700,380,107
2071714,423,107
2071724,427,107
2071734,397,107
2071745,441,107
2071750,388,107
2071765,374,107
2071775,369,107
2071783,301,107
2071796,329,107
2071806,297,107
2071816,282,107
2071827,320,107
2071834,272,107
2071834,302,107
2071858,302,107
2071867,271,107
2071878,319,107
2071883,281,107
2071898,295,107
2071909,318,107
2071917,272,107
2071930,317,107
2071940,293,107
2071949,282,107
2071960,322,107
2071970,272,107
2071981,303,107
2071988,303,107
2072000,272,107
2072011,323,107
2072016,284,107
2072032,297,107
2072042,317,107
2072050,271,107
2072063,311,107
2072073,287,107
2072084,275,107
2072093,316,107
2072100,272,107
2072113,307,107
2072124,310,107
2072133,282,107
2072145,330,107
2072151,288,107
2072151,297,107
2072168,317,107
2072184,270,107
2072196,314,107
2072207,295,107
2072217,286,107
2072226,329,107
2072234,283,107
2072234,313,107
2072249,309,107
2072266,274,107
2072278,317,107
2072289,279,107
2072299,293,107
2072309,319,107
2072316,280,107
2072329,326,107
2072340,310,107
2072350,300,107
2072361,336,107
2072368,285,107
2072381,315,107
2072391,310,107
2072400,278,107
2072412,324,107
2072417,289,107
2072433,305,107
2072434,331,107
2072449,292,107
2072463,335,107
2072467,315,107
2072484,314,107
2072489,353,107
2072500,302,107
2072500,334,107
2072525,327,107
2072533,289,107
2072545,336,107
2072551,299,107
2072566,311,107
2072576,335,107
2072586,293,107
2072597,334,107
2072606,302,107
2072616,397,107
2072627,658,102
2072634,658,102
2072634,401,102
2072658,221,102
2072667,284,102
2072676,337,102
2072683,294,102
2072699,306,102
2072709,327,102
2072718,286,102
2072724,332,102
2072738,308,102
2072750,304,102
2072750,349,102
2072767,308,102
2072781,348,102
2072792,356,102
2072801,329,102
2072813,380,102
2072822,346,102
2072833,362,102
2072842,389,102
2072850,346,102
2072863,397,102
2072874,380,102
2072884,380,102
2072890,432,102
2072900,402,102
2072914,446,102
2072924,451,102
2072934,422,102
2072945,453,102
2072956,385,102
2072966,368,102
2072976,364,102
2072984,299,102
2072997,334,102
2073007,311,102
2073017,301,102
2073019,340,102
2073034,293,102
2073049,325,102
2073050,323,102
2073066,294,102
2073078,344,102
2073089,314,102
2073099,331,102
2073110,351,102
2073116,309,102
2073130,353,102
2073140,331,102
2073150,325,102
2073150,363,102
2073168,318,102
2073177,351,102
2073190,351,102
2073201,321,102
2073212,368,102
2073218,328,102
2073225,341,102
2073234,363,102
2073249,324,102
2073264,370,102
2073267,347,102
2073283,337,102
2073295,375,102
2073300,329,102
2073315,364,102
2073326,364,102
2073334,337,102
2073346,386,102
2073356,347,102
2073367,361,102
2073377,378,102
2073384,333,102
2073391,376,102
2073408,350,102
2073417,341,102
2073427,378,102
2073434,336,102
2073434,368,102
2073459,367,102
2073467,336,102
2073480,389,102
2073484,357,102
2073500,371,102
2073510,388,102
2073517,342,102
2073530,377,102
2073533,351,102
2073550,343,102
2073561,381,102
2073571,333,102
2073583,364,102
2073592,361,102
2073600,318,102
2073613,395,102
2073623,566,106
2073633,659,106
2073643,656,106
2073650,247,106
2073650,319,106
2073667,348,106
2073685,327,106
2073695,360,106
2073700,313,106
2073716,343,106
2073725,338,106
2073734,306,106
2073746,353,106
2073756,312,106
2073766,326,106
2073777,349,106
2073784,315,106
2073796,368,106
2073807,349,106
2073817,344,106
2073826,387,106
2073834,345,106
2073834,379,106
2073860,383,106
2073867,362,106
2073880,420,106
2073890,394,106
2073900,424,106
2073900,456,106
2073917,420,106
2073932,460,106
2073942,421,106
2073950,380,106
2073961,379,106
2073967,298,106
2073982,310,106
2073993,295,106
2074000,262,106
2074014,309,106
2074024,273,106
2074033,293,106
2074043,316,106
2074050,277,106
2074065,323,106
2074075,297,106
2074084,289,106
2074095,327,106
2074105,281,106
2074116,311,106
2074126,308,106
2074134,280,106
2074147,325,106
2074151,283,106
2074167,293,106
2074177,311,106
2074183,269,106
2074198,316,106
2074201,294,106
2074217,287,106
2074229,326,106
2074234,280,106
2074250,314,106
2074259,309,106
2074267,275,106
2074280,317,106
2074290,275,106
2074300,287,106
2074311,307,106
2074317,265,106
2074332,312,106
2074342,292,106
2074350,286,106
2074362,325,106
2074368,274,106
2074383,307,106
2074394,302,106
2074400,273,106
2074414,319,106
2074424,279,106
2074434,294,106
2074434,314,106
2074450,271,106
2074465,317,106
2074475,293,106
2074484,284,106
2074492,322,106
2074506,276,106
2074516,309,106
2074527,307,106
2074534,279,106
2074547,324,106
2074557,285,106
2074568,299,106
2074577,320,106
2074583,278,106
2074599,326,106
2074600,303,106
2074619,294,106
2074629,333,106
2074634,286,106
2074650,319,106
2074659,316,106
2074666,294,106
2074681,352,106
2074690,315,106
2074700,324,106
2074711,342,106
2074719,293,106
2074719,334,106
2074743,306,106
2074751,297,106
2074751,332,106
2074768,283,106
2074784,319,106
2074793,313,106
2074800,292,106
2074814,494,107
2074825,658,107
2074834,657,107
2074844,322,107
2074855,218,107
2074865,334,107
2074876,297,107
2074884,280,107
2074896,319,107
2074906,273,107
2074917,309,107
2074926,312,107
2074934,284,107
2074946,333,107
2074958,298,107
2074967,316,107
2074979,340,107
2074984,302,107
2074992,352,107
2074999,328,107
2075016,327,107
2075029,366,107
2075040,323,107
2075050,364,107
2075050,372,107
2075066,357,107
2075080,419,107
2075091,392,107
2075101,419,107
2075101,441,107
2075117,397,107
2075133,435,107
2075142,392,107
2075150,355,107
2075163,364,107
2075173,295,107
2075184,317,107
2075194,310,107
2075200,279,107
2075214,325,107
2075224,283,107
2075233,294,107
2075245,309,107
2075250,262,107
2075266,306,107
2075267,280,107
2075283,274,107
2075296,313,107
2075300,268,107
2075316,305,107
2075327,303,107
2075334,273,107
2075348,318,107
2075358,272,107
2075367,284,107
2075379,301,107
2075388,256,107
2075399,302,107
2075409,279,107
2075418,276,107
2075430,314,107
2075440,267,107
2075450,298,107
2075460,290,107
2075466,260,107
2075481,304,107
2075484,262,107
2075500,278,107
2075512,300,107
2075522,259,107
2075532,308,107
2075534,285,107
2075551,280,107
2075551,314,107
2075567,267,107
2075584,300,107
2075594,293,107
2075600,260,107
2075614,310,107
2075624,271,107
2075633,288,107
2075646,310,107
2075651,271,107
2075666,320,107
2075675,293,107
2075683,289,107
2075696,325,107
2075707,277,107
2075717,315,107
2075728,311,107
2075733,286,107
2075748,336,107
2075758,298,107
2075767,319,107
2075779,337,107
2075783,299,107
2075799,345,107
2075810,318,107
2075817,310,107
2075830,346,107
2075841,301,107
2075850,338,107
2075862,335,107
2075867,307,107
2075881,357,107
2075891,330,107
2075900,349,107
2075900,362,107
2075923,323,107
2075933,361,107
2075943,331,107
2075950,323,107
2075964,359,107
2075974,311,107
2075984,342,107
2075994,343,107
2076000,308,107
2076015,357,107
2076025,467,102
2076034,659,102
2076046,659,102
2076056,331,102
2076066,271,102
2076069,329,102
2076084,322,102
2076098,356,102
2076100,311,102
2076117,347,102
2076128,340,102
2076134,315,102
2076149,360,102
2076159,324,102
2076167,344,102
2076180,371,102
2076189,337,102
2076200,390,102
2076201,368,102
2076217,369,102
2076231,409,102
2076234,367,102
2076251,405,102
2076262,407,102
2076268,389,102
2076282,445,102
2076292,419,102
2076300,446,102
2076313,474,102
2076323,438,102
2076334,486,102
2076342,453,102
2076350,429,102
2076364,434,102
2076370,356,102
2076383,366,102
2076395,342,102
2076400,303,102
2076416,344,102
2076417,302,102
2076433,317,102
2076433,333,102
2076450,291,102
2076466,337,102
2076477,310,102
2076484,301,102
2076493,344,102
2076501,304,102
2076517,336,102
2076528,334,102
2076534,315,102
2076550,359,102
2076551,316,102
2076569,333,102
2076579,348,102
2076584,308,102
2076601,353,102
2076611,328,102
2076617,325,102
2076631,358,102
2076634,309,102
2076650,343,102
2076662,336,102
2076668,310,102
2076682,356,102
2076693,319,102
2076700,337,102
2076712,355,102
2076718,314,102
2076734,362,102
2076744,336,102
2076750,330,102
2076764,365,102
2076774,313,102
2076783,349,102
2076795,345,102
2076800,320,102
2076816,367,102
2076821,328,102
2076833,346,102
2076847,361,102
2076851,320,102
2076867,366,102
2076878,336,102
2076883,329,102
2076897,373,102
2076908,337,102
2076918,370,102
2076929,366,102
2076939,339,102
2076950,376,102
2076960,334,102
2076967,350,102
2076980,363,102
2076990,320,102
2077000,363,102
2077010,338,102
2077017,318,102
2077031,420,107
2077034,621,107
2077050,659,107
2077062,592,107
2077070,208,107
2077083,339,107
2077092,323,107
2077100,330,107
2077113,342,107
2077124,301,107
2077134,344,107
2077145,317,107
2077150,313,107
2077150,349,107
2077175,305,107
2077184,343,107
2077193,342,107
2077200,325,107
2077216,378,107
2077227,341,107
2077234,363,107
2077247,383,107
2077257,341,107
2077267,389,107
2077278,368,107
2077284,371,107
2077299,415,107
2077308,381,107
2077317,430,107
2077317,434,107
2077339,415,107
2077349,457,107
2077360,394,107
2077367,375,107
2077375,354,107
2077391,282,107
2077401,310,107
2077401,273,107
2077418,269,107
2077427,310,107
2077434,269,107
2077451,311,107
2077463,305,107
2077473,277,107
2077483,320,107
2077494,275,107
2077500,289,107
2077514,303,107
2077524,265,107
2077533,312,107
2077544,286,107
2077550,284,107
2077565,316,107
2077576,268,107
2077583,303,107
2077596,296,107
2077601,270,107
2077617,317,107
2077627,279,107
2077633,299,107
2077647,321,107
2077650,282,107
2077668,325,107
2077676,296,107
2077684,285,107
2077698,317,107
2077709,270,107
2077717,304,107
2077730,299,107
2077740,274,107
2077750,323,107
2077760,285,107
2077767,304,107
2077773,321,107
2077791,277,107
2077801,320,107
2077803,292,107
2077818,288,107
2077827,320,107
2077842,275,107
2077850,312,107
2077863,310,107
2077873,285,107
2077883,334,107
2077894,291,107
2077900,308,107
2077914,324,107
2077924,282,107
2077934,328,107
2077934,302,107
2077950,298,107
2077966,336,107
2077976,292,107
2077983,328,107
2077996,322,107
2078007,297,107
2078017,342,107
2078028,299,107
2078034,315,107
2078048,333,107
2078058,292,107
2078066,340,107
2078078,317,107
2078084,312,107
2078093,345,107
2078100,306,107
2078116,351,107
2078130,344,107
2078133,314,107
2078151,354,107
2078151,306,107
2078167,319,107
2078181,337,107
2078185,295,107
2078199,343,107
2078211,317,107
2078222,312,107
2078233,343,107
2078243,294,107
2078250,465,106
2078263,658,106
2078274,657,106
2078283,361,106
2078293,219,106
2078301,319,106
2078301,327,106
2078317,278,106
2078333,323,106
2078346,295,106
2078350,289,106
2078366,325,106
2078375,279,106
2078384,317,106
2078397,316,106
2078408,294,106
2078417,347,106
2078427,310,106
2078433,330,106
2078448,352,106
2078450,314,106
2078466,362,106
2078479,338,106
2078489,341,106
2078499,385,106
2078509,351,106
2078517,403,106
2078530,409,106
2078541,395,106
2078551,443,106
2078551,402,106
2078571,412,106
2078581,412,106
2078584,347,106
2078600,367,106
2078612,316,106
2078623,296,106
2078632,326,106
2078634,276,106
2078650,312,106
2078650,306,106
2078674,279,106
2078684,324,106
2078694,279,106
2078700,297,106
2078715,313,106
2078725,271,106
2078734,320,106
2078734,292,106
2078750,287,106
2078765,324,106
2078776,278,106
2078783,314,106
2078797,309,106
2078800,280,106
2078817,325,106
2078828,285,106
2078834,300,106
2078849,320,106
2078859,279,106
2078868,324,106
2078879,297,106
2078884,291,106
2078900,327,106
2078910,282,106
2078920,319,106
2078931,316,106
2078941,290,106
2078950,338,106
2078961,298,106
2078967,315,106
2078982,334,106
2078992,291,106
2079000,336,106
2079012,306,106
2079017,301,106
2079033,337,106
2079035,290,106
2079050,328,106
2079064,325,106
2079067,299,106
2079084,345,106
2079095,306,106
2079100,326,106
2079115,341,106
2079125,299,106
2079133,347,106
2079146,322,106
2079156,316,106
2079167,350,106
2079176,304,106
2079184,340,106
2079197,336,106
2079201,309,106
2079217,355,106
2079229,314,106
2079234,331,106
2079249,348,106
2079259,304,106
2079266,349,106
2079280,321,106
2079284,315,106
2079300,351,106
2079310,300,106
2079320,341,106
2079320,344,106
2079341,322,106
2079350,365,106
2079362,320,106
2079367,330,106
2079382,341,106
2079393,297,106
2079401,340,106
2079407,311,106
2079417,305,106
2079434,339,106
2079444,289,106
2079450,318,106
2079450,416,103
2079474,641,103
2079483,658,103
2079495,392,103
2079501,208,103
2079516,316,103
2079526,280,103
2079533,308,103
2079546,291,103
2079556,280,103
2079566,314,103
2079577,273,103
2079584,299,103
2079598,302,103
2079601,276,103
2079617,322,103
2079628,295,103
2079639,311,103
2079649,340,103
2079659,307,103
2079669,352,103
2079680,338,103
2079690,331,103
2079700,369,103
2079710,336,103
2079717,370,103
2079731,381,103
2079734,368,103
2079750,421,103
2079750,398,103
2079767,411,102
2079783,426,102
2079784,372,102
2079800,379,102
2079813,328,102
2079817,291,102
2079834,308,102
2079844,259,102
2079852,285,102
2079864,294,102
2079873,272,102
2079883,317,102
2079896,286,102
2079901,294,102
2079917,309,102
2079926,268,102
2079933,305,102
2079946,286,102
2079951,277,102
2079966,312,102
2079977,274,102
2079983,306,102
2079999,314,102
2080008,292,102
2080017,336,102
2080024,304,102
2080039,317,102
2080050,338,102
2080051,299,102
2080067,338,102
2080080,318,102
2080085,304,102
2080100,336,102
2080112,294,102
2080117,314,102
2080132,316,102
2080134,286,102
2080150,329,102
2080154,301,102
2080173,312,102
2080183,335,102
2080194,303,102
2080201,343,102
2080201,330,102
2080224,321,102
2080233,355,102
2080233,318,102
2080250,347,102
2080265,349,102
2080276,320,102
2080283,362,102
2080296,330,102
2080306,339,102
2080316,359,102
2080323,325,102
2080333,363,102
2080347,348,102
2080358,340,102
2080367,376,102
2080378,339,102
2080384,369,102
2080399,370,102
2080401,344,102
2080417,397,102
2080430,370,102
2080436,374,102
2080450,394,102
2080450,349,102
2080470,381,102
2080481,362,102
2080484,352,102
2080500,389,102
2080512,350,102
2080520,378,102
2080532,376,102
2080542,345,102
2080550,507,104
2080562,659,104
2080572,659,104
2080584,487,104
2080584,237,104
2080601,368,104
2080613,361,104
2080624,346,104
2080634,381,104
2080646,348,104
2080655,377,104
2080665,381,104
2080675,357,104
2080684,399,104
2080696,363,104
2080700,372,104
2080716,394,104
2080727,363,104
2080733,408,104
2080748,397,104
2080757,391,104
2080768,430,104
2080768,394,104
2080785,421,104
2080799,426,104
2080809,404,104
2080817,454,104
2080830,433,104
2080840,450,104
2080850,479,104
2080851,443,105
2080866,473,105
2080881,438,105
2080891,388,105
2080900,386,105
2080911,317,105
2080918,317,105
2080932,304,105
2080943,272,105
2080950,313,105
2080963,285,105
2080973,293,105
2080983,314,105
2080994,270,105
2080999,304,105
2081014,286,105
2081025,270,105
2081033,306,105
2081044,270,105
2081050,301,105
2081050,306,105
2081068,278,105
2081084,316,105
2081097,283,105
2081101,290,105
2081117,310,105
2081127,273,105
2081137,313,105
2081148,297,105
2081151,283,105
2081167,316,105
2081179,275,105
2081184,294,105
2081199,294,105
2081200,261,105
2081217,297,105
2081230,265,105
2081234,273,105
2081250,300,105
2081261,265,105
2081267,306,105
2081281,295,105
2081292,282,105
2081301,317,105
2081301,276,105
2081318,300,105
2081332,303,105
2081342,273,105
2081350,316,105
2081350,287,105
2081374,292,105
2081383,314,105
2081395,275,105
2081400,311,105
2081415,296,105
2081425,284,105
2081433,321,105
2081445,284,105
2081450,312,105
2081466,318,105
2081472,291,105
2081483,333,105
2081497,301,105
2081507,311,105
2081517,330,105
2081525,294,105
2081533,332,105
2081548,317,105
2081558,309,105
2081566,356,105
2081579,323,105
2081589,343,105
2081600,344,105
2081610,308,105
2081617,337,105
2081620,304,105
2081641,311,105
2081650,333,105
2081661,295,105
2081667,334,105
2081682,320,105
2081692,298,105
2081700,413,105
2081700,618,105
2081723,658,105
2081733,490,105
2081734,189,105
2081751,322,105
2081765,306,105
2081775,302,105
2081784,325,105
2081795,290,105
2081800,325,105
2081815,306,105
2081826,291,105
2081834,325,105
2081834,288,105
2081857,316,105
2081867,329,105
2081877,309,105
2081884,358,105
2081897,337,105
2081908,349,105
2081916,376,105
2081927,342,105
2081933,377,105
2081948,366,105
2081959,358,105
2081969,399,105
2081980,374,105
2081989,412,105
2082000,427,105
2082010,407,105
2082017,446,105
2082031,404,105
2082041,382,105
2082050,369,105
2082062,302,105
2082068,317,105
2082082,288,105
2082092,269,105
2082100,303,105
2082113,268,105
2082118,291,105
2082118,296,105
2082144,266,105
2082151,308,105
2082164,283,105
2082167,295,105
2082183,325,105
2082195,289,105
2082200,324,105
2082216,307,105
2082226,291,105
2082234,322,105
2082234,281,105
2082251,305,105
2082267,311,105
2082276,286,105
2082283,333,105
2082298,307,105
2082301,315,105
2082317,338,105
2082324,295,105
2082333,326,105
2082349,306,105
2082360,289,105
2082367,326,105
2082375,290,105
2082390,321,105
2082400,330,105
2082410,307,105
2082416,353,105
2082430,325,105
2082434,330,105
2082451,350,105
2082462,305,105
2082467,336,105
2082482,316,105
2082493,302,105
2082501,337,105
2082501,302,105
2082524,328,105
2082534,336,105
2082534,306,105
2082550,348,105
2082565,317,105
2082576,320,105
2082584,344,105
2082596,301,105
2082606,343,105
2082617,327,105
2082626,314,105
2082634,354,105
2082647,311,105
2082658,339,105
2082667,341,105
2082677,309,105
2082684,352,105
2082698,319,105
2082708,327,105
2082717,353,105
2082717,314,105
2082734,353,105
2082750,335,105
2082760,322,105
2082766,363,105
2082780,313,105
2082791,342,105
2082800,354,105
2082811,327,105
2082817,373,105
2082831,334,105
2082842,341,105
2082850,358,105
2082862,308,105
2082873,350,105
2082882,331,105
2082892,313,105
2082900,354,105
2082900,307,105
2082915,327,105
2082934,371,105
2082940,546,101
2082954,659,101
2082965,629,101
2082974,233,101
2082986,316,101
2082990,307,101
2083006,333,101
2083006,310,101
2083024,293,101
2083036,337,101
2083047,289,101
2083056,321,101
2083068,330,101
2083074,297,101
2083074,348,101
2083098,313,101
2083106,325,101
2083119,354,101
2083129,311,101
2083139,357,101
2083140,344,101
2083156,333,101
2083170,380,101
2083174,344,101
2083190,381,101
2083202,396,101
2083207,374,101
2083216,434,101
2083232,403,101
2083239,411,101
2083252,433,101
2083263,375,101
2083273,398,101
2083284,351,101
2083289,309,101
2083304,333,101
2083314,277,101
2083323,297,101
2083334,304,101
2083340,267,101
2083355,315,101
2083366,275,101
2083375,274,101
2083386,300,101
2083396,250,101
2083406,293,101
2083407,277,101
2083423,260,101
2083437,304,101
2083439,258,101
2083456,287,101
2083468,293,101
2083474,255,101
2083474,302,101
2083498,266,101
2083507,272,101
2083516,300,101
2083530,252,101
2083540,296,101
2083550,284,101
2083557,266,101
2083571,310,101
2083581,260,101
2083590,286,101
2083601,294,101
2083606,256,101
2083622,304,101
2083632,269,101
2083639,277,101
2083653,308,101
2083663,265,101
2083672,306,101
2083683,293,101
2083690,274,101
2083704,317,101
2083715,273,101
2083724,302,101
2083724,313,101
2083740,276,101
2083756,324,101
2083766,291,101
2083773,298,101
2083773,325,101
2083790,276,101
2083806,319,101
2083817,306,101
2083824,287,101
2083837,336,101
2083848,292,101
2083857,321,101
2083863,332,101
2083874,296,101
2083890,344,101
2083899,311,101
2083906,320,101
2083919,361,101
2083930,313,101
2083939,351,101
2083951,337,101
2083956,310,101
2083972,355,101
2083981,312,101
2083989,336,101
2084002,344,101
2084012,311,101
2084022,356,101
2084033,311,101
2084040,329,101
2084053,540,103
2084063,659,103
2084074,656,103
2084084,264,103
2084090,238,103
2084104,348,103
2084114,298,103
2084123,321,103
2084135,330,103
2084141,290,103
2084141,339,103
2084157,313,103
2084173,319,103
2084187,356,103
2084190,315,103
2084206,362,103
2084217,356,103
2084223,343,103
2084238,392,103
2084249,354,103
2084256,382,103
2084269,399,103
2084279,363,103
2084289,418,103
2084299,393,103
2084306,407,103
2084320,453,103
2084326,421,103
2084340,475,103
2084351,470,103
2084361,450,103
2084371,488,103
2084373,422,103
2084390,412,103
2084399,392,103
2084407,330,103
2084423,361,103
2084424,319,103
2084440,317,103
2084440,348,103
2084463,303,103
2084473,344,103
2084473,333,103
2084490,310,103
2084505,356,103
2084515,312,103
2084524,336,103
2084535,351,103
2084546,314,103
2084556,363,103
2084566,335,103
2084573,335,103
2084586,368,103
2084597,321,103
2084607,360,103
2084618,349,103
2084628,329,103
2084638,375,103
2084648,330,103
2084656,351,103
2084668,359,103
2084675,314,103
2084689,355,103
2084700,322,103
2084707,319,103
2084707,356,103
2084731,312,103
2084740,353,103
2084740,346,103
2084757,327,103
2084766,376,103
2084781,335,103
2084790,354,103
2084802,364,103
2084806,319,103
2084822,361,103
2084832,328,103
2084840,326,103
2084853,359,103
2084862,315,103
2084874,357,103
2084884,359,103
2084890,341,103
2084905,380,103
2084910,332,103
2084925,340,103
2084936,346,103
2084940,300,103
2084956,346,103
2084966,317,103
2084977,313,103
2084987,350,103
2084993,302,103
2085006,329,103
2085018,390,103
2085028,607,107
2085038,659,107
2085039,490,107
2085057,198,107
2085062,308,107
2085074,290,107
2085090,330,107
2085100,303,107
2085107,299,107
2085116,336,107
2085123,287,107
2085139,324,107
2085151,316,107
2085159,288,107
2085171,335,107
2085182,297,107
2085190,324,107
2085203,348,107
2085212,312,107
2085223,366,107
2085233,342,107
2085240,337,107
2085253,376,107
2085262,335,107
2085274,385,107
2085275,388,107
2085295,373,107
2085305,434,107
2085316,404,107
2085323,427,107
2085323,441,107
2085341,378,107
2085356,389,107
2085367,325,107
2085373,288,107
2085373,305,107
2085397,244,107
2085406,278,107
2085415,274,107
2085423,251,107
2085438,302,107
2085449,262,107
2085456,281,107
2085470,299,107
2085480,256,107
2085490,302,107
2085501,275,107
2085507,270,107
2085507,308,107
2085531,261,107
2085540,297,107
2085552,292,107
2085562,262,107
2085572,309,107
2085583,269,107
2085590,286,107
2085603,310,107
2085613,268,107
2085622,318,107
2085633,293,107
2085639,285,107
2085655,322,107
2085657,272,107
2085674,305,107
2085685,297,107
2085696,268,107
2085706,317,107
2085716,277,107
2085723,295,107
2085723,318,107
2085748,278,107
2085757,326,107
2085766,301,107
2085773,292,107
2085773,330,107
2085798,282,107
2085806,316,107
2085819,314,107
2085829,285,107
2085839,335,107
2085849,295,107
2085857,309,107
2085857,328,107
2085881,283,107
2085891,329,107
2085901,306,107
2085907,299,107
2085917,340,107
2085923,294,107
2085939,330,107
2085952,325,107
2085956,289,107
2085972,336,107
2085974,296,107
2085989,312,107
2086004,337,107
2086006,300,107
2086023,354,107
2086034,336,107
2086045,332,107
2086055,373,107
2086065,322,107
2086073,349,107
2086085,350,107
2086090,323,107
2086106,371,107
2086111,324,107
2086124,338,107
2086124,357,107
2086139,310,107
2086157,355,107
2086168,334,107
2086173,324,107
2086188,363,107
2086191,314,107
2086207,342,107
2086219,338,107
2086229,433,92
2086239,658,92
2086250,659,92
2086256,400,92
2086271,266,92
2086274,307,92
2086289,350,92
2086301,316,92
2086307,301,92
2086316,342,92
2086332,296,92
2086339,331,92
2086352,334,92
2086363,303,92
2086373,356,92
2086383,319,92
2086390,337,92
2086404,364,92
2086407,327,92
2086423,377,92
2086426,361,92
2086440,354,92
2086455,399,92
2086466,355,92
2086475,395,92
2086487,404,92
2086490,383,92
2086506,446,92
2086515,419,92
2086523,439,92
2086523,465,92
2086548,414,100
2086556,441,100
2086568,386,100
2086573,340,100
2086589,354,100
2086599,289,100
2086607,310,100
2086620,313,100
2086624,283,100
2086640,335,100
2086650,298,100
2086656,307,100
2086671,330,100
2086681,280,100
2086689,321,100
2086702,297,100
2086712,282,100
2086722,323,100
2086732,274,100
2086740,307,100
2086753,313,100
2086763,281,100
2086773,329,100
2086784,289,100
2086790,299,100
2086804,324,100
2086807,280,100
2086824,327,100
2086833,305,100
2086840,290,100
2086856,328,100
2086866,277,100
2086873,306,100
2086886,311,100
2086897,277,100
2086906,328,100
2086917,292,100
2086923,302,100
2086938,330,100
2086948,284,100
2086956,330,100
2086956,312,100
2086979,298,100
2086989,343,100
2086990,301,100
2087006,334,100
2087020,342,100
2087030,310,100
2087039,358,100
2087051,317,100
2087056,321,100
2087071,343,100
2087082,290,100
2087090,332,100
2087102,315,100
2087112,300,100
2087123,348,100
2087133,306,100
2087140,337,100
2087153,343,100
2087156,307,100
2087174,350,100
2087184,309,100
2087191,312,100
2087205,337,100
2087215,291,100
2087224,335,100
2087224,318,100
2087240,304,100
2087256,349,100
2087266,302,100
2087273,328,100
2087288,342,100
2087291,311,100
2087307,357,100
2087313,314,100
2087328,313,100
2087338,334,100
2087348,281,100
2087356,323,100
2087369,309,100
2087380,292,100
2087390,338,100
2087400,293,100
2087407,313,100
2087413,321,100
2087431,413,91
2087441,658,91
2087441,658,91
2087457,322,91
2087472,243,91
2087481,276,91
2087490,313,91
2087502,286,91
2087512,267,91
2087523,310,91
2087534,265,91
2087541,292,91
2087541,302,91
2087564,267,91
2087573,318,91
2087573,288,91
2087595,299,91
2087605,334,91
2087615,289,91
2087623,333,91
2087636,323,91
2087646,305,91
2087656,353,91
2087667,310,91
2087673,341,91
2087687,362,91
2087690,335,91
2087707,396,91
2087718,376,91
2087728,386,91
2087738,419,99
2087740,366,99
2087758,386,99
2087769,338,99
2087774,282,99
2087790,301,99
2087800,238,99
2087807,254,99
2087821,264,99
2087823,231,99
2087840,289,99
2087851,260,99
2087856,267,99
2087872,301,99
2087876,253,99
2087890,293,99
2087903,283,99
2087907,261,99
2087923,304,99
2087933,256,99
2087940,280,99
2087954,295,99
2087965,261,99
2087973,310,99
2087985,282,99
2087990,288,99
2088006,330,99
2088008,288,99
2088025,332,99
2088036,326,99
2088047,305,99
2088057,348,99
2088065,302,99
2088073,322,99
2088088,330,99
2088098,285,99
2088106,329,99
2088119,297,99
2088129,298,99
2088139,335,99
2088149,293,99
2088157,341,99
2088157,337,99
2088174,320,99
2088190,371,99
2088190,335,99
2088207,359,99
2088222,369,99
2088231,326,99
2088240,372,99
2088240,344,99
2088257,346,99
2088266,378,99
2088283,333,99
2088291,373,99
2088303,363,99
2088313,337,99
2088323,383,99
2088323,339,99
2088339,358,99
2088355,376,99
2088364,339,99
2088373,385,99
2088385,365,99
2088395,375,99
2088406,410,93
2088417,356,93
2088423,389,93
2088437,371,93
2088440,342,93
2088456,386,93
2088467,340,93
2088473,363,93
2088473,380,93
2088498,339,93
2088507,382,93
2088516,355,93
2088529,503,93
2088539,659,93
2088540,659,93
2088557,398,93
2088570,273,93
2088573,333,93
2088589,379,93
2088592,328,93
2088607,346,93
2088615,360,93
2088632,318,93
2088640,366,93
2088652,341,93
2088657,341,93
2088673,380,93
2088684,336,93
2088689,380,93
2088704,380,93
2088714,357,93
2088723,406,103
2088734,363,103
2088740,381,103
2088755,396,103
2088765,357,103
2088775,413,103
2088785,400,103
2088796,414,103
2088806,463,103
2088817,427,103
2088824,472,103
2088824,468,103
2088847,429,103
2088857,444,103
2088868,364,103
2088877,348,103
2088889,340,103
2088899,284,103
2088907,325,103
2088919,297,103
2088929,291,103
2088939,332,103
2088951,285,103
2088957,319,103
2088957,309,103
2088981,276,103
2088989,321,103
2089001,280,103
2089007,300,103
2089023,322,103
2089032,290,103
2089039,345,103
2089052,327,103
2089062,321,103
2089072,358,103
2089083,309,103
2089090,342,103
2089104,338,103
2089114,305,103
2089123,351,103
2089126,310,103
2089140,325,103
2089156,340,103
2089166,291,103
2089175,333,103
2089187,302,103
2089190,290,103
2089206,325,103
2089217,277,103
2089223,314,103
2089237,317,103
2089248,294,103
2089256,345,103
2089268,307,103
2089279,323,103
2089289,343,103
2089299,296,103
2089307,340,103
2089319,317,103
2089324,308,103
2089340,346,103
2089350,297,103
2089357,329,103
2089365,323,103
2089381,288,103
2089391,335,103
2089391,294,103
2089412,309,103
2089423,337,103
2089424,297,103
2089440,348,103
2089453,328,103
2089456,325,103
2089474,376,103
2089474,320,103
2089489,345,103
2089504,339,103
2089508,300,103
2089523,349,103
2089523,309,103
2089540,323,103
2089556,348,103
2089565,304,103
2089573,347,103
2089573,310,103
2089590,339,103
2089606,591,94
2089617,658,94
2089623,584,94
2089638,225,94
2089641,261,94
2089657,351,94
2089668,301,94
2089674,311,94
2089689,334,94
2089700,283,94
2089706,323,94
2089716,298,94
2089725,288,94
2089740,333,94
2089751,290,94
2089756,331,94
2089772,342,94
2089781,314,94
2089791,366,94
2089791,329,94
2089812,341,94
2089823,364,94
2089833,320,94
2089840,371,94
2089840,361,94
2089864,362,94
2089873,419,94
2089884,388,94
2089890,436,94
2089890,443,94
2089915,406,102
2089923,436,102
2089936,361,102
2089946,331,102
2089956,325,102
2089966,256,102
2089973,289,102
2089987,267,102
2089998,258,102
2090007,304,102
2090017,259,102
2090024,291,102
2090038,292,102
2090048,256,102
2090056,303,102
2090069,263,102
2090079,273,102
2090090,300,102
2090099,254,102
2090107,299,102
2090120,281,102
2090131,267,102
2090140,308,102
2090151,261,102
2090156,291,102
2090171,296,102
2090182,264,102
2090190,313,102
2090202,276,102
2090213,284,102
2090222,309,102
2090233,263,102
2090240,304,102
2090240,285,102
2090258,272,102
2090273,319,102
2090284,275,102
2090295,308,102
2090304,317,102
2090315,282,102
2090324,330,102
2090336,291,102
2090341,298,102
2090356,323,102
2090365,277,102
2090374,322,102
2090387,306,102
2090390,291,102
2090407,338,102
2090418,294,102
2090428,325,102
2090438,331,102
2090449,295,102
2090456,343,102
2090469,305,102
2090480,312,102
2090490,340,102
2090490,293,102
2090506,338,102
2090521,323,102
2090523,308,102
2090539,353,102
2090551,306,102
2090562,336,102
2090572,342,102
2090583,303,102
2090590,352,102
2090602,315,102
2090607,320,102
2090623,348,102
2090632,301,102
2090640,344,102
2090640,326,102
2090657,307,102
2090674,352,102
2090685,305,102
2090690,333,102
2090705,341,102
2090716,307,102
2090723,356,102
2090737,328,102
2090747,342,102
2090757,375,102
2090767,321,102
2090775,361,102
2090787,338,102
2090798,310,102
2090806,352,102
2090818,307,102
2090824,334,102
2090824,343,102
2090849,307,102
2090856,354,102
2090870,309,102
2090880,387,102
2090889,646,92
2090900,658,92
2090907,505,92
