Timestamp,ECGValue,BPM
1778431,319,105
1778438,293,105
1778451,297,105
1778456,313,105
1778471,275,105
1778483,306,105
1778488,292,105
1778503,280,105
1778512,318,105
1778521,282,105
1778533,308,105
1778544,315,105
1778554,286,105
1778564,322,105
1778574,295,105
1778579,293,105
1778588,315,105
1778604,277,105
1778612,314,105
1778626,303,105
1778636,290,105
1778641,326,105
1778655,289,105
1778667,311,105
1778677,317,105
1778687,290,105
1778697,329,105
1778704,303,105
1778717,307,105
1778729,328,105
1778738,291,105
1778749,324,105
1778755,312,105
1778770,296,105
1778779,331,105
1778788,297,105
1778800,321,105
1778805,329,105
1778821,304,105
1778831,344,105
1778837,317,105
1778851,319,105
1778862,342,105
1778871,305,105
1778882,338,105
1778888,326,105
1778903,313,105
1778912,348,105
1778921,312,105
1778933,334,105
1778944,340,105
1778954,311,105
1778965,348,105
1778972,321,105
1778985,324,105
1778995,349,105
1779004,312,105
1779016,345,105
1779022,333,105
1779036,318,105
1779047,352,105
1779055,316,105
1779068,334,105
1779077,341,105
1779087,311,105
1779098,350,105
1779104,324,105
1779118,326,105
1779129,350,105
1779138,313,105
1779149,345,105
1779155,344,105
1779169,331,105
1779180,359,105
1779188,319,105
1779201,337,105
1779211,336,105
1779221,305,105
1779231,341,105
1779238,314,105
1779252,316,105
1779255,336,105
1779271,296,105
1779283,315,105
1779293,362,105
1779303,569,101
1779313,658,101
1779321,524,101
1779334,201,101
1779338,289,101
1779354,282,101
1779365,304,101
1779372,278,101
1779379,277,101
1779396,301,101
1779405,264,101
1779414,295,101
1779422,286,101
1779422,273,101
1779438,316,101
1779455,286,101
1779467,314,101
1779472,328,101
1779488,304,101
1779488,343,101
1779504,322,101
1779518,326,101
1779526,352,101
1779537,317,101
1779550,357,101
1779555,358,101
1779570,356,101
1779580,409,101
1779587,390,101
1779601,422,101
1779605,433,101
1779621,393,101
1779631,405,101
1779638,344,101
1779652,310,101
1779662,306,101
1779671,251,101
1779682,278,101
1779688,272,101
1779704,262,101
1779714,305,101
1779721,275,101
1779734,297,101
1779745,310,101
1779754,278,101
1779765,312,101
1779771,284,101
1779786,281,101
1779796,305,101
1779804,266,101
1779817,298,101
1779827,293,101
1779837,281,101
1779848,321,101
1779855,293,101
1779868,317,101
1779879,324,101
1779888,294,101
1779898,331,101
1779904,302,101
1779919,298,101
1779930,319,101
1779938,282,101
1779951,314,101
1779960,303,101
1779970,286,101
1779981,321,101
1779988,290,101
1780001,307,101
1780011,318,101
1780021,291,101
1780032,328,101
1780038,308,101
1780052,307,101
1780063,333,101
1780071,300,101
1780083,332,101
1780093,321,101
1780105,303,101
1780114,341,101
1780121,310,101
1780134,331,101
1780145,348,101
1780155,321,101
1780166,362,101
1780172,340,101
1780179,344,101
1780196,366,101
1780204,330,101
1780214,375,101
1780227,378,101
1780237,353,101
1780248,391,101
1780254,357,101
1780268,365,101
1780278,374,101
1780288,345,101
1780298,382,101
1780305,357,101
1780320,358,101
1780329,382,101
1780338,338,101
1780338,432,106
1780355,657,106
1780371,660,106
1780381,636,106
1780388,248,106
1780402,331,106
1780404,381,106
1780422,342,106
1780433,375,106
1780438,355,106
1780453,357,106
1780463,385,106
1780471,350,106
1780480,382,106
1780494,378,106
1780504,360,106
1780513,397,106
1780521,365,106
1780535,388,106
1780545,403,106
1780554,377,106
1780566,418,106
1780574,399,106
1780586,401,106
1780597,429,106
1780605,399,106
1780605,439,106
1780628,448,106
1780638,445,106
1780648,496,106
1780654,472,106
1780668,489,106
1780678,482,106
1780688,418,106
1780700,415,106
1780704,358,106
1780719,331,106
1780730,342,106
1780738,301,106
1780751,333,106
1780761,333,106
1780771,324,106
1780781,365,106
1780788,332,106
1780802,346,106
1780812,349,106
1780822,309,106
1780822,337,106
1780838,308,106
1780854,301,106
1780864,331,106
1780871,300,106
1780880,335,106
1780894,332,106
1780904,315,106
1780916,349,106
1780921,316,106
1780936,330,106
1780946,337,106
1780954,301,106
1780966,334,106
1780975,309,106
1780986,304,106
1780997,328,106
1781004,287,106
1781018,313,106
1781028,304,106
1781038,279,106
1781049,311,106
1781055,278,106
1781069,295,106
1781079,311,106
1781087,284,106
1781099,324,106
1781109,305,106
1781120,303,106
1781131,329,106
1781138,292,106
1781152,318,106
1781161,312,106
1781171,292,106
1781182,327,106
1781188,295,106
1781188,311,106
1781213,325,106
1781221,293,106
1781233,328,106
1781243,307,106
1781254,304,106
1781265,328,106
1781271,289,106
1781284,327,106
1781294,333,106
1781304,305,106
1781315,340,106
1781321,305,106
1781336,312,106
1781338,325,106
1781354,288,106
1781367,324,106
1781371,302,106
1781387,297,106
1781397,322,106
1781405,274,106
1781417,384,106
1781428,625,108
1781438,658,108
1781448,477,108
1781455,183,108
1781469,290,108
1781480,316,108
1781488,272,108
1781501,307,108
1781512,285,108
1781521,282,108
1781531,312,108
1781538,273,108
1781551,306,108
1781562,308,108
1781571,294,108
1781582,336,108
1781589,312,108
1781603,331,108
1781613,348,108
1781621,318,108
1781634,357,108
1781638,340,108
1781654,341,108
1781664,377,108
1781670,349,108
1781680,388,108
1781693,399,108
1781704,390,108
1781712,437,108
1781721,409,108
1781737,419,108
1781746,418,108
1781754,354,108
1781767,359,108
1781777,312,108
1781787,284,108
1781798,300,108
1781804,257,108
1781818,285,108
1781829,286,108
1781838,266,108
1781849,308,108
1781854,278,108
1781869,293,108
1781880,311,108
1781887,281,108
1781900,318,108
1781905,296,108
1781920,289,108
1781922,317,108
1781937,278,108
1781952,301,108
1781955,296,108
1781971,275,108
1781982,314,108
1781993,283,108
1782003,296,108
1782014,312,108
1782022,279,108
1782022,315,108
1782038,292,108
1782054,286,108
1782064,316,108
1782072,277,108
1782085,303,108
1782096,302,108
1782105,281,108
1782116,320,108
1782126,288,108
1782137,300,108
1782146,315,108
1782155,280,108
1782155,317,108
1782178,299,108
1782187,292,108
1782198,324,108
1782204,288,108
1782218,317,108
1782229,314,108
1782239,290,108
1782249,326,108
1782260,295,108
1782270,307,108
1782280,326,108
1782288,296,108
1782300,337,108
1782311,319,108
1782321,315,108
1782322,344,108
1782338,303,108
1782352,327,108
1782355,323,108
1782372,300,108
1782383,339,108
1782393,309,108
1782403,321,108
1782414,339,108
1782422,306,108
1782433,340,108
1782437,322,108
1782454,314,108
1782465,345,108
1782472,307,108
1782480,333,108
1782489,331,108
1782505,308,108
1782517,344,108
1782522,314,108
1782537,326,108
1782548,341,108
1782555,305,108
1782563,348,108
1782578,340,108
1782587,331,108
1782599,355,108
1782604,314,108
1782619,335,108
1782630,332,108
1782637,307,108
1782650,343,108
1782655,312,108
1782670,322,108
1782681,339,108
1782688,298,108
1782688,324,108
1782705,411,100
1782721,649,100
1782732,658,100
1782738,408,100
1782752,227,100
1782755,316,100
1782771,293,100
1782783,318,100
1782794,285,100
1782804,292,100
1782814,310,100
1782821,275,100
1782835,310,100
1782845,295,100
1782854,292,100
1782865,328,100
1782876,296,100
1782886,324,100
1782896,328,100
1782904,303,100
1782917,342,100
1782922,316,100
1782937,329,100
1782947,353,100
1782955,325,100
1782964,370,100
1782978,365,100
1782987,370,100
1782999,415,100
1783004,390,100
1783020,419,100
1783029,418,100
1783038,380,100
1783038,388,100
1783054,324,100
1783070,303,100
1783081,300,100
1783089,252,100
1783102,282,100
1783104,269,100
1783121,265,100
1783132,303,100
1783138,274,100
1783153,301,100
1783163,303,100
1783172,276,100
1783184,308,100
1783188,276,100
1783204,280,100
1783215,296,100
1783224,259,100
1783236,294,100
1783245,282,100
1783254,276,100
1783254,314,100
1783272,281,100
1783282,305,100
1783288,308,100
1783304,280,100
1783317,316,100
1783322,283,100
1783338,287,100
1783338,305,100
1783355,267,100
1783364,304,100
1783371,291,100
1783389,279,100
1783399,315,100
1783406,281,100
1783414,302,100
1783422,305,100
1783439,283,100
1783451,320,100
1783455,293,100
1783471,302,100
1783481,324,100
1783489,291,100
1783489,324,100
1783512,312,100
1783521,300,100
1783533,332,100
1783539,296,100
1783539,317,100
1783564,322,100
1783572,294,100
1783583,333,100
1783589,308,100
1783605,322,100
1783614,347,100
1783621,317,100
1783636,352,100
1783646,343,100
1783655,333,100
1783666,367,100
1783677,334,100
1783687,361,100
1783697,363,100
1783704,336,100
1783717,387,100
1783723,368,100
1783737,364,100
1783749,386,100
1783754,342,100
1783769,372,100
1783779,358,100
1783788,345,100
1783800,379,100
1783804,346,100
1783820,369,100
1783830,370,100
1783837,340,100
1783851,490,102
1783861,659,102
1783871,660,102
1783882,517,102
1783888,234,102
1783902,365,102
1783912,366,102
1783921,346,102
1783933,381,102
1783938,348,102
1783953,371,102
1783955,377,102
1783971,352,102
1783983,394,102
1783988,369,102
1784004,372,102
1784013,397,102
1784022,366,102
1784035,404,102
1784046,394,102
1784055,384,102
1784063,418,102
1784072,385,102
1784087,408,102
1784097,420,102
1784104,404,102
1784118,455,102
1784128,444,102
1784138,462,102
1784138,492,102
1784157,457,102
1784169,484,102
1784179,448,102
1784188,396,102
1784188,395,102
1784210,333,102
1784220,331,102
1784230,325,102
1784237,294,102
1784237,329,102
1784256,302,102
1784272,312,102
1784282,337,102
1784287,305,102
1784287,341,102
1784313,332,102
1784321,318,102
1784333,353,102
1784344,319,102
1784354,341,102
1784363,353,102
1784371,326,102
1784384,365,102
1784387,337,102
1784405,337,102
1784415,361,102
1784422,325,102
1784436,358,102
1784446,346,102
1784454,331,102
1784467,362,102
1784476,323,102
1784487,339,102
1784488,342,102
1784504,308,102
1784518,338,102
1784529,309,102
1784538,307,102
1784549,332,102
1784554,295,102
1784570,330,102
1784580,322,102
1784587,307,102
1784600,342,102
1784604,307,102
1784621,321,102
1784631,325,102
1784638,295,102
1784651,334,102
1784654,310,102
1784671,316,102
1784682,344,102
1784693,310,102
1784703,339,102
1784713,335,102
1784721,333,102
1784734,358,102
1784737,318,102
1784754,331,102
1784764,329,102
1784773,296,102
1784785,331,102
1784788,306,102
1784806,307,102
1784814,329,102
1784822,290,102
1784822,308,102
1784847,363,102
1784854,577,108
1784867,659,108
1784878,514,108
1784888,202,108
1784898,296,108
1784904,290,108
1784919,317,108
1784929,290,108
1784937,287,108
1784950,311,108
1784959,271,108
1784970,300,108
1784980,291,108
1784987,277,108
1785001,316,108
1785011,286,108
1785021,312,108
1785031,327,108
1785038,301,108
1785038,341,108
1785062,316,108
1785071,319,108
1785083,349,108
1785093,319,108
1785103,358,108
1785113,363,108
1785122,363,108
1785134,412,108
1785144,388,108
1785154,411,108
1785165,415,107
1785172,368,107
1785186,373,107
1785196,314,107
1785205,287,107
1785216,293,107
1785226,245,107
1785237,272,107
1785247,264,107
1785255,249,107
1785267,288,107
1785275,256,107
1785288,276,107
1785299,287,107
1785304,259,107
1785319,299,107
1785329,275,107
1785338,273,107
1785350,298,107
1785360,259,107
1785371,289,107
1785381,280,107
1785388,263,107
1785402,301,107
1785411,269,107
1785422,288,107
1785432,300,107
1785438,271,107
1785452,310,107
1785463,283,107
1785471,281,107
1785483,306,107
1785488,269,107
1785504,299,107
1785504,292,107
1785521,275,107
1785535,315,107
1785539,283,107
1785555,304,107
1785566,318,107
1785571,289,107
1785585,327,107
1785597,305,107
1785605,304,107
1785617,329,107
1785627,293,107
1785638,323,107
1785647,316,107
1785655,300,107
1785655,340,107
1785672,308,107
1785687,326,107
1785699,337,107
1785705,306,107
1785720,343,107
1785721,318,107
1785737,317,107
1785737,345,107
1785755,310,107
1785771,340,107
1785781,332,107
1785788,313,107
1785801,348,107
1785812,314,107
1785821,327,107
1785832,337,107
1785838,305,107
1785853,345,107
1785863,323,107
1785871,325,107
1785884,353,107
1785894,315,107
1785904,348,107
1785914,340,107
1785923,318,107
1785923,354,107
1785937,320,107
1785955,334,107
1785966,347,107
1785976,316,107
1785987,354,107
1785996,332,107
1786004,331,107
1786017,355,107
1786026,318,107
1786038,359,107
1786048,359,107
1786054,335,107
1786070,368,107
1786078,331,107
1786088,335,107
1786099,345,107
1786110,310,107
1786120,345,107
1786131,322,107
1786138,319,107
1786151,347,107
1786161,299,107
1786171,379,107
1786181,585,102
1786187,659,102
1786202,621,102
1786212,224,102
1786222,294,102
1786222,335,102
1786243,285,102
1786253,320,102
1786264,297,102
1786271,296,102
1786283,325,102
1786294,290,102
1786305,320,102
1786314,318,102
1786322,301,102
1786335,342,102
1786346,311,102
1786354,328,102
1786366,345,102
1786377,316,102
1786387,353,102
1786397,331,102
1786405,327,102
1786418,359,102
1786428,329,102
1786438,373,102
1786448,388,102
1786455,389,102
1786455,440,102
1786479,415,102
1786488,428,102
1786500,429,102
1786510,368,102
1786521,372,102
1786530,316,102
1786538,285,102
1786551,297,102
1786560,254,102
1786572,285,102
1786582,286,102
1786588,270,102
1786602,312,102
1786613,281,102
1786621,294,102
1786633,309,102
1786639,275,102
1786653,311,102
1786664,288,102
1786671,280,102
1786674,306,102
1786689,266,102
1786705,296,102
1786715,290,102
1786721,271,102
1786721,309,102
1786746,277,102
1786754,292,102
1786767,305,102
1786772,270,102
1786787,305,102
1786789,281,102
1786806,275,102
1786818,303,102
1786828,266,102
1786839,297,102
1786839,294,102
1786855,276,102
1786869,314,102
1786880,279,102
1786888,297,102
1786900,311,102
1786910,279,102
1786921,316,102
1786931,296,102
1786938,290,102
1786951,318,102
1786955,281,102
1786971,307,102
1786982,306,102
1786987,286,102
1787002,324,102
1787013,294,102
1787021,309,102
1787034,323,102
1787044,294,102
1787054,329,102
1787055,309,102
1787071,307,102
1787082,334,102
1787095,295,102
1787105,326,102
1787116,323,102
1787122,305,102
1787122,344,102
1787137,313,102
1787154,328,102
1787167,342,102
1787171,309,102
1787187,346,102
1787197,328,102
1787205,323,102
1787213,349,102
1787229,321,102
1787238,362,102
1787249,361,102
1787255,337,102
1787270,371,102
1787279,334,102
1787288,347,102
1787300,362,102
1787304,329,102
1787320,368,102
1787331,349,102
1787338,345,102
1787352,367,102
1787362,354,102
1787371,580,101
1787383,660,101
1787388,658,101
1787403,336,101
1787405,291,101
1787421,373,101
1787434,384,101
1787444,349,101
1787454,389,101
1787455,372,101
1787471,370,101
1787485,399,101
1787495,363,101
1787505,395,101
1787512,392,101
1787526,373,101
1787537,415,101
1787547,389,101
1787554,408,101
1787567,428,101
1787578,398,101
1787588,437,101
1787598,419,101
1787604,415,101
1787619,446,101
1787629,416,101
1787637,454,101
1787649,462,101
1787655,451,101
1787670,498,101
1787680,469,101
1787689,471,101
1787689,460,101
1787711,390,101
1787722,389,101
1787732,340,101
1787738,314,101
1787752,333,101
1787762,291,101
1787771,320,101
1787782,318,101
1787788,299,101
1787804,336,101
1787814,299,101
1787821,305,101
1787834,316,101
1787845,280,101
1787854,314,101
1787864,293,101
1787871,289,101
1787886,319,101
1787896,282,101
1787905,310,101
1787905,307,101
1787922,286,101
1787931,325,101
1787939,295,101
1787956,310,101
1787967,326,101
1787971,291,101
1787988,321,101
1787999,299,101
1788005,288,101
1788014,313,101
1788029,272,101
1788038,298,101
1788044,295,101
1788054,274,101
1788070,317,101
1788080,287,101
1788088,301,101
1788088,320,101
1788105,284,101
1788121,317,101
1788133,294,101
1788138,283,101
1788138,312,101
1788156,274,101
1788171,303,101
1788183,307,101
1788194,289,101
1788204,333,101
1788214,304,101
1788221,320,101
1788234,336,101
1788245,300,101
1788255,336,101
1788255,316,101
1788272,309,101
1788285,340,101
1788289,302,101
1788305,331,101
1788316,332,101
1788327,311,101
1788337,351,101
1788348,321,101
1788354,333,101
1788368,347,101
1788375,316,101
1788388,370,101
1788399,349,101
1788406,338,101
1788419,367,101
1788430,326,101
1788437,353,101
1788451,353,101
1788460,332,101
1788471,368,101
1788481,332,101
1788489,334,101
1788502,330,101
1788505,330,101
1788521,571,103
1788533,659,103
1788538,596,103
1788538,245,103
1788555,272,103
1788571,349,103
1788584,342,103
1788589,315,103
1788604,348,103
1788614,307,103
1788624,305,103
1788635,314,103
1788645,275,103
1788655,312,103
1788666,301,103
1788675,303,103
1788686,345,103
1788689,315,103
1788705,347,103
1788717,351,103
1788721,332,103
1788737,373,103
1788748,343,103
1788755,360,103
1788768,382,103
1788772,359,103
1788789,407,103
1788799,400,103
1788809,401,103
1788820,434,103
1788830,392,103
1788839,406,103
1788839,378,103
1788861,322,103
1788871,334,103
1788882,282,103
1788889,282,103
1788889,297,103
1788912,263,103
1788922,304,103
1788932,288,103
1788938,280,103
1788953,309,103
1788963,270,103
1788971,296,103
1788984,295,103
1788994,268,103
1789004,307,103
1789005,277,103
1789022,285,103
1789035,303,103
1789046,269,103
1789056,303,103
1789063,287,103
1789076,279,103
1789086,311,103
1789097,275,103
1789105,299,103
1789118,299,103
1789121,273,103
1789137,310,103
1789148,276,103
1789155,284,103
1789155,302,103
1789179,264,103
1789189,301,103
1789200,284,103
1789210,281,103
1789220,316,103
1789230,284,103
1789237,313,103
1789251,315,103
1789262,292,103
1789271,328,103
1789282,298,103
1789289,304,103
1789302,322,103
1789313,285,103
1789321,322,103
1789333,308,103
1789338,301,103
1789354,337,103
1789364,305,103
1789373,333,103
1789384,336,103
1789395,312,103
1789405,348,103
1789415,316,103
1789425,325,103
1789436,341,103
1789446,306,103
1789454,342,103
1789467,328,103
1789476,321,103
1789487,357,103
1789497,320,103
1789508,344,103
1789518,344,103
1789521,317,103
1789537,355,103
1789549,324,103
1789554,333,103
1789570,353,103
1789580,318,103
1789590,353,103
1789590,345,103
1789610,348,103
1789620,368,103
1789621,330,103
1789638,350,103
1789652,347,103
1789662,321,103
1789672,359,103
1789682,329,103
1789690,338,103
1789703,356,103
1789704,318,103
1789721,342,103
1789733,408,102
1789738,640,102
1789755,659,102
1789764,501,102
1789771,235,102
1789771,328,102
1789796,316,102
1789804,342,102
1789815,311,102
1789821,318,102
1789821,337,102
1789839,302,102
1789856,337,102
1789868,320,102
1789877,313,102
1789887,350,102
1789898,317,102
1789905,346,102
1789912,353,102
1789928,333,102
1789938,375,102
1789949,348,102
1789955,360,102
1789970,382,102
1789980,353,102
1789990,392,102
1790000,388,102
1790011,392,102
1790020,439,102
1790031,412,102
1790038,440,102
1790052,441,102
1790062,403,102
1790071,413,102
1790083,350,102
1790090,330,102
1790103,328,102
1790113,278,102
1790121,310,102
1790134,295,102
1790143,286,102
1790155,320,102
1790165,283,102
1790171,305,102
1790185,308,102
1790191,280,102
1790206,317,102
1790216,285,102
1790222,291,102
1790222,312,102
1790247,274,102
1790254,308,102
1790267,292,102
1790271,279,102
1790287,312,102
1790299,275,102
1790304,300,102
1790318,304,102
1790329,277,102
1790338,316,102
1790349,290,102
1790355,297,102
1790370,316,102
1790380,277,102
1790390,306,102
1790390,287,102
1790411,271,102
1790421,301,102
1790432,265,102
1790438,291,102
1790452,300,102
1790462,282,102
1790471,326,102
1790482,301,102
1790490,309,102
1790503,327,102
1790513,283,102
1790524,309,102
1790524,287,102
1790545,270,102
1790555,302,102
1790565,269,102
1790572,296,102
1790585,304,102
1790590,280,102
1790606,319,102
1790617,290,102
1790622,294,102
1790622,312,102
1790646,277,102
1790655,312,102
1790667,298,102
1790671,286,102
1790688,319,102
1790698,285,102
1790704,306,102
1790719,310,102
1790726,284,102
1790739,321,102
1790750,295,102
1790755,301,102
1790771,323,102
1790781,286,102
1790790,322,102
1790790,310,102
1790805,310,102
1790821,351,102
1790821,310,102
1790838,330,102
1790838,326,102
1790854,291,102
1790871,328,102
1790883,300,102
1790894,309,102
1790903,326,102
1790914,289,102
1790921,321,102
1790935,293,102
1790945,335,102
1790954,598,98
1790966,658,98
1790973,529,98
1790986,194,98
1790996,249,98
1791005,318,98
1791005,284,98
1791027,292,98
1791037,313,98
1791038,277,98
1791054,313,98
1791069,304,98
1791071,291,98
1791088,327,98
1791099,298,98
1791104,325,98
1791119,337,98
1791129,318,98
1791137,359,98
1791150,337,98
1791160,347,98
1791171,374,98
1791181,342,98
1791191,380,98
1791202,375,98
1791212,374,98
1791221,418,98
1791232,395,98
1791238,430,98
1791253,443,98
1791264,418,98
1791271,444,98
1791284,388,98
1791291,358,98
1791304,350,98
1791314,295,98
1791322,317,98
1791335,302,98
1791338,289,98
1791355,327,98
1791366,297,98
1791373,319,98
1791373,322,98
1791391,298,98
1791405,335,98
1791414,311,98
1791421,319,98
1791438,342,98
1791448,307,98
1791455,346,98
1791468,339,98
1791479,329,98
1791488,365,98
1791498,329,98
1791505,352,98
1791520,359,98
1791529,334,98
1791538,374,98
1791550,348,98
1791560,354,98
1791570,373,98
1791582,337,98
1791591,368,98
1791602,354,98
1791612,340,98
1791622,373,98
1791622,340,98
1791637,364,98
1791653,368,98
1791663,343,98
1791671,383,98
1791684,360,98
1791694,367,98
1791704,387,98
1791715,350,98
1791725,381,98
1791725,368,98
1791745,355,98
1791755,390,98
1791765,356,98
1791776,378,98
1791786,382,98
1791797,350,98
1791804,389,98
1791817,374,98
1791827,379,98
1791838,393,98
1791848,356,98
1791854,383,98
1791869,369,98
1791879,352,98
1791888,383,98
1791900,345,98
1791905,361,98
1791920,361,98
1791922,324,98
1791937,362,98
1791951,474,103
1791962,658,103
1791971,659,103
1791982,371,103
1791991,261,103
1792002,335,103
1792013,321,103
1792021,345,103
1792033,307,103
1792043,327,103
1792053,334,103
1792064,303,103
1792072,345,103
1792084,320,103
1792094,328,103
1792105,351,103
1792115,320,103
1792121,359,103
1792135,352,103
1792145,345,103
1792154,383,103
1792167,353,103
1792177,377,103
1792187,391,103
1792197,366,103
1792205,410,103
1792218,393,103
1792228,410,103
1792238,445,103
1792249,419,103
1792255,458,104
1792269,440,104
1792279,400,104
1792288,400,104
1792300,329,104
1792310,319,104
1792321,308,104
1792331,271,104
1792338,305,104
1792351,283,104
1792355,290,104
1792371,317,104
1792382,284,104
1792391,318,104
1792403,308,104
1792413,290,104
1792422,321,104
1792433,282,104
1792444,297,104
1792454,302,104
1792465,274,104
1792471,314,104
1792485,286,104
1792494,285,104
1792505,307,104
1792516,272,104
1792523,308,104
1792535,297,104
1792538,281,104
1792554,314,104
1792564,280,104
1792571,300,104
1792587,307,104
1792598,277,104
1792604,312,104
1792618,287,104
1792628,288,104
1792638,308,104
1792649,270,104
1792655,299,104
1792669,288,104
1792680,273,104
1792688,306,104
1792700,271,104
1792705,291,104
1792720,303,104
1792731,277,104
1792737,317,104
1792752,295,104
1792755,300,104
1792771,325,104
1792783,288,104
1792790,321,104
1792802,307,104
1792812,290,104
1792821,322,104
1792834,285,104
1792843,303,104
1792855,313,104
1792865,284,104
1792874,325,104
1792885,302,104
1792891,305,104
1792905,332,104
1792916,297,104
1792921,327,104
1792937,318,104
1792947,302,104
1792955,336,104
1792962,301,104
1792971,322,104
1792987,328,104
1792999,301,104
1793004,352,104
1793017,329,104
1793029,323,104
1793039,345,104
1793039,301,104
1793055,329,104
1793070,321,104
1793080,304,104
1793090,340,104
1793101,305,104
1793111,323,104
1793121,326,104
1793126,288,104
1793141,436,103
1793152,656,103
1793161,658,103
1793171,415,103
1793182,202,103
1793193,321,103
1793203,312,103
1793213,283,103
1793222,318,103
1793234,282,103
1793244,301,103
1793254,313,103
1793265,283,103
1793271,323,103
1793285,303,103
1793296,308,103
1793305,334,103
1793316,297,103
1793327,330,103
1793337,322,103
1793348,304,103
1793354,344,103
1793367,311,103
1793378,335,103
1793388,350,103
1793398,329,103
1793405,379,103
1793418,367,103
1793429,378,103
1793437,417,103
1793437,386,103
1793460,415,103
1793470,393,103
1793481,346,103
1793491,347,103
1793501,282,103
1793505,276,103
1793521,273,103
1793532,235,103
1793538,274,103
1793552,254,103
1793563,256,103
1793573,284,103
1793573,246,103
1793591,277,103
1793603,268,103
1793614,249,103
1793621,283,103
1793634,246,103
1793638,265,103
1793654,277,103
1793665,252,103
1793676,294,103
1793686,277,103
1793691,280,103
1793705,308,103
1793717,271,103
1793722,300,103
1793737,290,103
1793737,266,103
1793754,298,103
1793768,258,103
1793778,276,103
1793787,287,103
1793799,256,103
1793805,296,103
1793820,276,103
1793829,276,103
1793838,300,103
1793838,260,103
1793856,290,103
1793870,285,103
1793872,269,103
1793887,308,103
1793902,280,103
1793905,299,103
1793921,313,103
1793932,290,103
1793938,330,103
1793938,301,103
1793955,299,103
1793971,320,103
1793984,280,103
1793993,310,103
1794004,307,103
1794014,290,103
1794021,331,103
1794035,303,103
1794045,323,103
1794055,336,103
1794065,303,103
1794074,340,103
1794086,315,103
1794096,310,103
1794105,338,103
1794117,302,103
1794127,333,103
1794138,328,103
1794147,311,103
1794155,345,103
1794168,320,103
1794173,346,103
1794188,355,103
1794199,316,103
1794205,352,103
1794219,320,103
1794229,309,103
1794237,333,103
1794251,300,103
1794261,329,103
1794270,325,103
1794271,313,103
1794291,343,103
1794291,325,103
1794305,506,103
1794322,659,103
1794322,658,103
1794338,337,103
1794353,252,103
1794362,325,103
1794372,351,103
1794372,313,103
1794394,344,103
1794405,342,103
1794415,326,103
1794422,364,103
1794435,334,103
1794446,357,103
1794454,368,103
1794466,339,103
1794471,381,103
1794487,362,103
1794497,364,103
1794505,394,103
1794517,365,103
1794528,401,103
1794537,406,103
1794538,391,103
1794554,434,103
1794569,412,103
1794572,437,103
1794589,461,103
1794599,443,103
1794605,489,103
1794619,475,103
1794631,465,103
1794638,472,103
1794651,399,103
1794662,394,103
1794672,361,103
1794681,320,103
1794691,345,103
1794702,305,103
1794712,319,103
1794722,336,103
1794733,310,103
1794743,351,103
1794753,330,103
1794763,322,103
1794771,350,103
1794784,316,103
1794794,344,103
1794804,346,103
1794815,327,103
1794822,368,103
1794836,344,103
1794846,362,103
1794854,376,103
1794866,342,103
1794871,374,103
1794887,350,103
1794897,342,103
1794906,364,103
1794918,324,103
1794926,353,103
1794938,353,103
1794949,338,103
1794955,379,103
1794969,352,103
1794972,368,103
1794988,385,103
1795000,352,103
1795006,388,103
1795020,365,103
1795030,361,103
1795037,386,103
1795050,345,103
1795055,370,103
1795072,372,103
1795083,360,103
1795091,399,103
1795091,362,103
1795105,378,103
1795122,388,103
1795133,356,103
1795138,391,103
1795154,372,103
1795164,363,103
1795171,389,103
1795184,348,103
1795195,363,103
1795205,367,103
1795205,509,109
1795222,659,109
1795231,659,109
1795238,353,109
1795255,287,109
1795267,331,109
1795277,366,109
1795288,338,109
1795298,331,109
1795305,357,109
1795305,320,109
1795328,347,109
1795338,345,109
1795348,324,109
1795355,360,109
1795369,326,109
1795372,339,109
1795387,357,109
1795401,326,109
1795411,363,109
1795421,346,109
1795431,340,109
1795438,372,109
1795452,338,109
1795462,367,109
1795471,375,109
1795482,364,109
1795492,412,109
1795503,392,109
1795514,410,109
1795522,426,109
1795534,381,109
1795544,386,109
1795554,332,109
1795555,295,109
1795571,300,109
1795585,247,109
1795592,264,109
1795605,261,109
1795616,238,109
1795626,277,109
1795637,253,109
1795646,265,109
1795654,283,109
1795667,251,109
1795677,285,109
1795688,266,109
1795698,259,109
1795704,289,109
1795718,254,109
1795729,283,109
1795738,287,109
1795750,267,109
1795759,307,109
1795770,277,109
1795772,290,109
1795788,310,109
1795792,274,109
1795804,309,109
1795821,291,109
1795821,282,109
1795838,313,109
1795852,275,109
1795862,298,109
1795871,293,109
1795884,264,109
1795892,299,109
1795903,268,109
1795905,276,109
1795922,295,109
1795934,263,109
1795944,303,109
1795954,291,109
1795965,285,109
1795971,317,109
1795986,284,109
1795996,306,109
1796005,304,109
1796015,277,109
1796026,312,109
1796037,281,109
1796047,287,109
1796055,306,109
1796067,271,109
1796078,305,109
1796088,288,109
1796092,280,109
1796106,312,109
1796116,277,109
1796122,303,109
1796139,305,109
1796150,283,109
1796155,323,109
1796170,297,109
1796180,309,109
1796188,328,109
1796200,293,109
1796212,330,109
1796222,312,109
1796232,304,109
1796239,334,109
1796239,299,109
1796255,324,109
1796272,324,109
1796272,299,109
1796293,348,109
1796304,320,109
1796314,324,109
1796321,336,109
1796321,297,109
1796339,324,109
1796355,308,109
1796364,299,109
1796371,334,109
1796385,303,109
1796393,327,109
1796404,330,109
1796413,296,109
1796422,388,109
1796422,576,109
1796438,659,109
1796455,614,109
1796468,208,109
1796478,301,109
1796488,315,109
1796493,288,109
1796504,316,109
1796520,281,109
1796527,305,109
1796539,310,109
1796550,286,109
1796555,324,109
1796570,297,109
1796572,307,109
1796587,333,109
1796601,304,109
1796611,346,109
1796620,338,109
1796632,336,109
1796638,370,109
1796638,339,109
1796663,366,109
1796671,372,109
1796683,351,109
1796694,402,109
1796704,388,109
1796715,408,109
1796721,440,109
1796735,410,109
1796745,440,109
1796754,410,109
1796765,369,109
1796774,368,109
1796774,302,109
1796795,305,109
1796805,300,109
1796816,271,109
1796821,313,109
1796837,289,109
1796847,299,109
1796854,320,109
1796869,280,109
1796879,314,109
1796888,300,109
1796899,285,109
1796904,316,109
1796919,275,109
1796929,294,109
1796937,295,109
1796950,266,109
1796961,305,109
1796970,280,109
1796981,286,109
1796988,308,109
1797001,273,109
1797012,307,109
1797022,294,109
1797032,279,109
1797043,311,109
1797053,274,109
1797063,294,109
1797074,301,109
1797083,274,109
1797094,311,109
1797104,285,109
1797114,289,109
1797121,312,109
1797135,275,109
1797138,309,109
1797154,298,109
1797166,285,109
1797171,317,109
1797186,281,109
1797197,300,109
1797205,305,109
1797218,274,109
1797227,311,109
1797237,282,109
1797248,285,109
1797255,309,109
1797269,274,109
1797278,308,109
1797288,296,109
1797299,282,109
1797310,320,109
1797319,283,109
1797330,306,109
1797338,314,109
1797351,285,109
1797361,326,109
1797371,301,109
1797382,303,109
1797388,323,109
1797403,285,109
1797411,316,109
1797421,305,109
1797433,288,109
1797438,322,109
1797438,295,109
1797464,327,109
1797471,337,109
1797485,304,109
1797494,340,109
1797504,306,109
1797514,303,109
1797521,323,109
1797535,288,109
1797546,319,109
1797554,308,109
1797557,295,109
1797572,320,109
1797587,302,109
1797597,502,106
1797605,659,106
1797617,653,106
1797628,261,106
1797638,233,106
1797648,302,106
1797655,322,106
1797668,282,106
1797679,318,106
1797688,311,106
1797700,294,106
1797705,329,106
1797720,300,106
1797722,324,106
1797738,334,106
1797751,311,106
1797762,354,106
1797771,335,106
1797782,343,106
1797788,372,106
1797802,346,106
1797805,387,106
1797821,381,106
1797834,373,106
1797838,418,106
1797854,397,106
1797864,431,106
1797872,452,106
1797872,439,106
1797895,484,106
1797904,461,106
1797915,455,106
1797922,457,106
1797936,390,106
1797946,391,106
1797954,361,106
1797967,329,106
1797977,358,106
1797987,324,106
1797997,345,106
1798004,358,106
1798018,329,106
1798028,368,106
1798038,345,106
1798049,347,106
1798054,373,106
1798069,339,106
1798072,372,106
1798089,368,106
1798100,355,106
1798104,393,106
1798120,359,106
1798130,374,106
1798138,387,106
1798151,357,106
1798161,394,106
1798172,372,106
1798182,374,106
1798188,397,106
1798203,357,106
1798205,381,106
1798221,367,106
1798234,344,106
1798243,378,106
1798254,344,106
1798264,362,106
1798273,375,106
1798285,347,106
1798295,384,106
1798305,360,106
1798315,357,106
1798321,380,106
1798336,340,106
1798347,364,106
1798354,352,106
1798367,330,106
1798377,365,106
1798388,332,106
1798397,348,106
1798404,360,106
1798418,330,106
1798422,367,106
1798437,346,106
1798450,342,106
1798455,363,106
1798463,326,106
1798473,360,106
1798488,358,106
1798500,335,106
1798511,370,106
1798521,330,106
1798531,338,106
1798538,346,106
1798552,310,106
1798562,344,106
1798571,320,106
1798582,317,106
1798593,345,106
1798603,296,106
1798613,389,106
1798622,621,109
1798633,659,109
1798644,580,109
1798654,201,109
1798664,292,109
1798672,331,109
1798672,288,109
1798688,323,109
1798705,302,109
1798716,300,109
1798726,327,109
1798737,290,109
1798746,320,109
1798755,317,109
1798755,300,109
1798772,340,109
1798787,313,109
1798796,334,109
1798806,353,109
1798819,327,109
1798822,369,109
1798837,357,109
1798849,356,109
1798854,388,109
1798869,361,109
1798880,397,109
1798887,405,109
1798901,400,109
1798911,448,109
1798921,423,109
1798932,435,109
1798938,432,109
1798952,369,109
1798962,370,109
1798972,320,109
1798972,294,109
1798993,310,109
1799003,272,109
1799014,301,109
1799021,305,109
1799034,289,109
1799044,329,109
1799054,300,109
1799065,311,109
1799071,324,109
1799085,291,109
1799096,325,109
1799104,302,109
1799117,291,109
1799124,317,109
1799137,279,109
1799147,303,109
1799155,301,109
1799168,278,109
1799178,315,109
1799188,288,109
1799199,300,109
1799205,313,109
1799219,277,109
1799229,309,109
1799238,288,109
1799250,279,109
1799256,307,109
1799271,269,109
1799280,293,109
1799288,291,109
1799301,270,109
1799312,308,109
1799321,278,109
1799332,287,109
1799338,305,109
1799353,274,109
1799362,310,109
1799371,292,109
1799383,284,109
1799388,316,109
1799404,279,109
1799414,304,109
1799421,300,109
1799421,276,109
1799445,312,109
1799455,282,109
1799466,293,109
1799471,313,109
1799486,281,109
1799489,317,109
1799505,300,109
1799515,292,109
1799527,320,109
1799537,285,109
1799547,310,109
1799555,310,109
1799568,286,109
1799571,324,109
1799588,296,109
1799598,308,109
1799604,327,109
1799618,294,109
1799621,330,109
1799638,315,109
1799644,304,109
1799654,331,109
1799671,298,109
1799681,333,109
1799688,335,109
1799701,306,109
1799712,344,109
1799721,309,109
1799732,313,109
1799738,329,109
1799744,292,109
1799763,326,109
1799771,307,109
1799783,297,109
1799794,321,109
1799805,293,109
1799814,467,109
1799822,658,109
1799834,656,109
1799845,323,109
1799855,227,109
1799866,306,109
1799873,312,109
1799886,268,109
1799896,302,109
1799905,285,109
1799917,273,109
1799923,306,109
1799937,270,109
1799937,297,109
1799954,305,109
1799968,284,109
1799979,329,109
1799988,303,109
1799999,311,109
1800005,333,109
1800005,299,109
1800030,335,109
1800039,324,109
1800050,317,109
1800061,355,109
1800070,332,109
1800081,369,109
1800089,386,109
1800102,369,109
1800105,413,109
1800122,385,109
1800127,384,109
1800138,385,109
1800153,317,109
1800164,319,109
1800171,279,109
1800184,252,109
1800189,278,109
1800205,244,109
1800215,272,109
1800222,282,109
1800222,261,109
1800245,303,109
1800255,273,109
1800264,279,109
1800272,296,109
1800272,256,109
1800297,283,109
1800304,265,109
1800317,248,109
1800327,278,109
1800337,245,109
1800348,273,109
1800355,284,109
1800369,262,109
1800380,307,109
1800388,282,109
1800400,288,109
1800405,311,109
1800420,275,109
1800431,306,109
1800438,289,109
1800451,275,109
1800455,308,109
1800471,270,109
1800482,291,109
1800488,298,109
1800502,269,109
1800513,309,109
1800521,282,109
1800533,287,109
1800543,309,109
1800554,275,109
1800563,308,109
1800572,297,109
1800575,289,109
1800588,327,109
1800605,292,109
1800615,314,109
1800621,323,109
1800621,297,109
1800639,331,109
1800655,310,109
1800667,318,109
1800671,343,109
1800687,307,109
1800697,342,109
1800705,334,109
1800713,324,109
1800720,353,109
1800738,321,109
1800740,343,109
1800754,350,109
1800770,321,109
1800779,360,109
1800787,343,109
1800800,362,109
1800810,393,109
1800821,356,109
1800830,390,109
1800837,374,109
1800852,355,109
1800861,387,109
1800871,353,109
1800874,374,109
1800888,386,109
1800899,358,109
1800905,385,109
1800923,371,109
1800933,544,95
1800938,660,95
1800954,659,95
1800964,398,95
1800971,288,95
1800985,355,95
1800995,387,95
1801005,350,95
1801005,371,95
1801022,386,95
1801036,362,95
1801047,400,95
1801054,380,95
1801067,383,95
1801072,409,95
1801088,372,95
1801097,403,95
1801105,399,95
1801114,386,95
1801129,425,95
1801138,394,95
1801138,412,95
1801154,424,95
1801169,397,95
1801180,440,95
1801189,427,95
1801199,440,95
1801211,480,95
1801221,453,95
1801231,491,95
1801238,486,99
1801252,457,99
1801262,466,99
1801271,401,99
1801283,388,99
1801288,376,99
1801303,332,99
1801313,361,99
1801321,336,99
1801333,332,99
1801338,356,99
1801354,317,99
1801364,339,99
1801372,321,99
1801372,295,99
1801396,324,99
1801404,285,99
1801416,299,99
1801422,312,99
1801436,284,99
1801447,327,99
1801455,308,99
1801467,307,99
1801477,339,99
1801487,309,99
1801497,345,99
1801504,344,99
1801518,328,99
1801528,361,99
1801537,330,99
1801549,339,99
1801555,343,99
1801570,302,99
1801580,328,99
1801588,299,99
1801600,289,99
1801605,317,99
1801621,280,99
1801623,311,99
1801637,309,99
1801653,290,99
1801663,326,99
1801672,292,99
1801672,304,99
1801688,318,99
1801703,288,99
1801714,328,99
1801721,313,99
1801735,310,99
1801744,342,99
1801754,308,99
1801765,333,99
1801771,329,99
1801786,306,99
1801796,337,99
1801805,304,99
1801816,325,99
1801823,345,99
1801836,307,99
1801847,342,99
1801854,320,99
1801868,310,99
1801878,339,99
1801888,304,99
1801898,331,99
1801904,329,99
1801919,309,99
1801930,341,99
1801938,299,99
1801950,398,99
1801960,656,93
1801971,658,93
1801980,486,93
1801988,222,93
1802001,307,93
1802011,353,93
1802021,309,93
1802022,333,93
1802039,332,93
1802052,305,93
1802055,339,93
1802071,304,93
1802084,310,93
1802088,327,93
1802104,292,93
1802114,328,93
1802121,315,93
1802134,315,93
1802145,353,93
1802154,326,93
1802155,358,93
1802172,363,93
1802186,344,93
1802197,386,93
1802206,367,93
1802215,386,93
1802227,418,93
1802237,396,93
1802247,440,93
1802254,427,93
1802254,412,93
1802271,419,102
1802288,350,102
1802288,341,102
1802305,312,102
1802320,265,102
1802322,291,102
1802338,256,102
1802338,263,102
1802360,283,102
1802370,248,102
1802381,284,102
1802388,270,102
1802402,261,102
1802411,295,102
1802421,260,102
1802433,285,102
1802438,288,102
1802453,263,102
1802463,302,102
1802472,273,102
1802474,278,102
1802494,296,102
1802504,260,102
1802514,294,102
1802522,280,102
1802535,270,102
1802545,304,102
1802555,268,102
1802555,293,102
1802576,295,102
1802586,268,102
1802588,303,102
1802605,272,102
1802617,276,102
1802622,297,102
1802637,262,102
1802647,300,102
1802658,291,102
1802668,282,102
1802679,318,102
1802688,284,102
1802699,304,102
1802705,308,102
1802720,279,102
1802726,314,102
1802738,285,102
1802750,289,102
1802761,311,102
1802771,278,102
1802781,312,102
1802788,301,102
1802802,288,102
1802812,320,102
1802822,283,102
1802833,304,102
1802843,310,102
1802853,282,102
1802863,321,102
1802872,294,102
1802884,299,102
1802894,322,102
1802904,286,102
1802914,319,102
1802921,308,102
1802936,294,102
1802946,328,102
1802954,293,102
1802965,314,102
1802972,321,102
1802987,289,102
1802988,327,102
1803005,308,102
1803005,312,102
1803022,332,102
1803038,294,102
1803048,321,102
1803056,306,102
1803069,290,102
1803078,322,102
1803087,288,102
1803099,306,102
1803110,313,102
1803120,279,102
1803130,307,102
1803137,367,102
1803150,615,93
1803161,659,93
1803171,446,93
1803182,210,93
1803188,287,93
1803202,282,93
1803205,307,93
1803222,270,93
1803231,285,93
1803238,297,93
1803254,269,93
1803254,310,93
1803272,290,93
1803272,294,93
1803295,326,93
1803305,296,93
1803314,333,93
1803321,331,93
1803321,315,93
1803346,356,93
1803356,327,93
1803363,349,93
1803372,366,93
1803387,340,93
1803389,385,93
1803406,373,93
1803417,382,93
1803428,417,93
1803438,391,93
1803448,426,93
1803455,412,102
1803469,382,102
1803479,390,102
1803487,325,102
1803500,314,102
1803505,309,102
1803521,269,102
1803522,304,102
1803538,288,102
1803551,290,102
1803562,325,102
1803572,292,102
1803583,321,102
1803588,315,102
1803603,292,102
1803613,326,102
1803621,295,102
1803633,305,102
1803643,317,102
1803654,289,102
1803664,329,102
1803672,315,102
1803672,317,102
1803695,355,102
1803704,324,102
1803716,356,102
1803722,357,102
1803722,335,102
1803747,368,102
1803754,330,102
1803767,336,102
1803777,348,102
1803787,313,102
1803798,350,102
1803804,334,102
1803818,332,102
1803828,365,102
1803838,333,102
1803848,359,102
1803855,357,102
1803870,338,102
1803880,374,102
1803888,342,102
1803901,356,102
1803910,372,102
1803921,341,102
1803931,376,102
1803939,354,102
1803951,345,102
1803962,370,102
1803971,332,102
1803982,360,102
1803992,360,102
1804003,342,102
1804005,384,102
1804021,356,102
1804034,369,102
1804044,388,102
1804054,354,102
1804064,387,102
1804071,369,102
1804071,360,102
1804088,389,102
1804105,353,102
1804116,379,102
1804121,379,102
1804136,354,102
1804139,398,102
1804155,376,102
1804165,384,102
1804178,396,102
1804187,356,102
1804198,382,102
1804205,362,102
1804218,352,102
1804221,380,102
1804237,343,102
1804250,366,102
1804254,365,102
1804269,329,102
1804280,383,102
1804288,539,94
1804300,659,94
1804311,658,94
1804321,295,94
1804331,293,94
1804338,343,94
1804351,324,94
1804362,352,94
1804372,313,94
1804383,337,94
1804393,339,94
1804403,313,94
1804414,351,94
1804421,328,94
1804421,336,94
1804437,359,94
1804455,327,94
1804465,366,94
1804472,358,94
1804486,352,94
1804490,388,94
1804505,355,94
1804505,378,94
1804522,384,94
1804531,360,94
1804540,404,94
1804555,389,94
1804568,409,94
1804571,441,94
1804588,413,94
1804598,448,100
1804605,425,100
1804619,388,100
1804627,385,100
1804639,318,100
1804639,315,100
1804660,304,100
1804670,268,100
1804671,306,100
1804687,282,100
1804701,290,100
1804705,314,100
1804721,279,100
1804732,308,100
1804738,296,100
1804753,280,100
1804763,312,100
1804771,275,100
1804783,294,100
1804788,302,100
1804804,274,100
1804805,311,100
1804823,288,100
1804834,292,100
1804838,316,100
1804854,283,100
1804865,319,100
1804873,311,100
1804885,297,100
1804896,330,100
1804906,293,100
1804906,308,100
1804927,313,100
1804937,279,100
1804948,312,100
1804955,284,100
1804968,286,100
1804978,314,100
1804988,280,100
1804999,316,100
1805004,312,100
1805018,297,100
1805029,332,100
1805038,296,100
1805050,312,100
1805061,323,100
1805070,292,100
1805081,330,100
1805088,308,100
1805101,309,100
1805112,334,100
1805122,297,100
1805122,326,100
1805138,317,100
1805154,298,100
1805155,333,100
1805171,299,100
1805183,316,100
1805193,327,100
1805204,299,100
1805205,337,100
1805221,317,100
1805235,316,100
1805245,341,100
1805255,305,100
1805263,334,100
1805271,330,100
1805286,310,100
1805288,345,100
1805305,315,100
1805317,329,100
1805327,343,100
1805337,310,100
1805348,346,100
1805355,326,100
1805368,330,100
1805379,359,100
1805387,319,100
1805399,343,100
1805405,335,100
1805420,303,100
1805430,337,100
1805438,302,100
1805451,312,100
1805461,324,100
1805471,289,100
1805481,321,100
1805488,290,100
1805502,368,100
1805512,634,91
1805521,658,91
1805533,455,91
1805538,206,91
1805554,267,91
1805563,315,91
1805572,273,91
1805584,283,91
1805595,299,91
1805605,267,91
1805615,302,91
1805622,281,91
1805635,277,91
1805646,311,91
1805655,277,91
1805666,310,91
1805672,316,91
1805687,297,91
1805689,335,91
1805705,306,91
1805712,321,91
1805728,339,91
1805737,308,91
1805738,347,91
1805755,335,91
1805769,340,91
1805772,386,91
1805788,363,91
1805799,394,91
1805805,398,91
1805819,370,91
1805830,394,91
1805838,337,91
1805851,317,91
1805861,310,91
1805871,257,91
1805881,283,91
1805888,264,91
1805902,256,91
1805912,288,91
1805921,252,91
1805933,275,91
1805939,277,91
1805953,252,91
1805955,288,91
1805971,258,91
1805985,267,91
1805991,287,91
1806005,252,91
1806015,290,91
1806022,276,91
1806035,267,91
1806046,303,91
1806055,268,91
1806066,289,91
1806077,292,91
1806087,264,91
1806089,300,91
1806106,269,91
1806118,275,91
1806121,291,91
1806138,252,91
1806138,284,91
1806155,269,91
1806169,254,91
1806180,286,91
1806188,252,91
1806200,277,91
1806211,287,91
1806221,264,91
1806230,307,91
1806238,284,91
1806251,291,91
1806261,317,91
1806271,281,91
1806283,315,91
1806287,300,91
1806302,288,91
1806313,322,91
1806321,286,91
1806321,306,91
1806338,316,91
1806354,292,91
1806364,330,91
1806371,309,91
1806384,315,91
1806395,341,91
1806405,307,91
1806405,340,91
1806422,332,91
1806436,318,91
1806446,352,91
1806455,317,91
1806466,339,91
1806471,348,91
1806487,323,91
1806490,358,91
1806504,336,91
1806504,349,91
1806528,389,91
1806538,358,91
1806548,390,91
1806555,382,91
1806569,360,91
1806579,392,91
1806588,359,91
1806600,375,91
1806611,385,91
1806620,358,91
1806632,399,91
1806637,366,91
1806651,401,87
1806655,639,87
1806671,660,87
1806682,658,87
1806688,347,87
1806703,305,87
1806713,404,87
1806721,364,87
1806734,376,87
1806744,390,87
1806754,363,87
1806756,401,87
1806772,383,87
1806782,383,87
1806796,413,87
1806805,377,87
1806816,407,87
1806822,404,87
1806822,392,87
1806847,433,87
1806855,407,87
1806867,426,87
1806877,442,87
1806887,410,87
1806897,448,87
1806905,429,87
1806918,433,87
1806929,470,87
1806938,447,87
1806949,486,87
1806955,489,99
1806955,470,99
1806980,492,99
1806988,433,99
1807000,410,99
1807011,392,99
1807021,333,99
1807031,352,99
1807038,326,99
1807052,321,99
1807062,354,99
1807072,323,99
1807082,349,99
1807088,343,99
1807103,317,99
1807113,344,99
1807121,306,99
1807133,313,99
1807144,324,99
1807154,289,99
1807165,326,99
1807171,311,99
1807186,307,99
1807195,341,99
1807204,308,99
1807216,338,99
1807226,342,99
1807236,320,99
1807247,355,99
1807254,320,99
1807267,324,99
1807278,337,99
1807288,295,99
1807288,322,99
1807305,301,99
1807319,286,99
1807329,313,99
1807338,275,99
1807350,301,99
1807355,304,99
1807370,282,99
1807380,322,99
1807388,296,99
1807402,304,99
1807411,323,99
1807421,288,99
1807432,320,99
1807438,308,99
1807452,295,99
1807455,330,99
1807471,296,99
1807481,316,99
1807493,322,99
1807503,296,99
1807514,333,99
1807522,302,99
1807535,305,99
1807545,321,99
1807555,280,99
1807565,310,99
1807575,297,99
1807585,282,99
1807596,320,99
1807605,288,99
1807616,313,99
1807622,325,99
1807637,313,99
1807647,357,99
1807656,329,99
1807667,334,99
1807673,350,99
1807688,311,99
1807699,339,99
1807704,324,99
1807719,307,99
1807729,337,99
1807737,303,99
1807737,314,99
1807755,313,99
1807771,406,91
1807781,658,91
1807788,658,91
1807800,334,91
1807812,233,91
1807822,280,91
1807825,314,91
1807838,298,91
1807838,286,91
1807862,322,91
1807872,292,91
1807872,311,91
1807889,321,91
1807904,295,91
1807914,333,91
1807921,310,91
1807921,314,91
1807945,344,91
1807955,312,91
1807964,347,91
1807971,340,91
1807986,324,91
1807988,361,91
1808005,332,91
1808012,355,91
1808022,373,91
1808037,356,91
1808038,408,91
1808055,396,91
1808064,404,91
1808079,436,98
1808088,396,98
1808099,409,98
1808104,373,98
1808119,323,98
1808122,333,98
1808138,281,98
1808138,283,98
1808161,292,98
1808171,259,98
1808181,297,98
1808188,279,98
1808202,276,98
1808205,306,98
1808222,269,98
1808232,298,98
1808239,292,98
1808253,270,98
1808263,306,98
1808273,273,98
1808284,286,98
1808294,300,98
1808304,267,98
1808314,305,98
1808321,287,98
1808335,283,98
1808339,313,98
1808355,277,98
1808366,307,98
1808372,304,98
