Timestamp,ECGValue,BPM
1920396,338,107
1920405,340,107
1920417,383,107
1920424,345,107
1920424,381,107
1920448,381,107
1920456,357,107
1920464,404,107
1920472,371,107
1920488,394,107
1920498,423,107
1920505,397,107
1920519,452,107
1920529,436,107
1920539,429,107
1920550,452,107
1920555,384,107
1920571,379,107
1920581,345,107
1920590,294,107
1920590,323,107
1920606,280,107
1920621,292,107
1920633,312,107
1920638,276,107
1920652,320,107
1920663,301,107
1920671,291,107
1920684,323,107
1920689,280,107
1920704,309,107
1920714,306,107
1920723,278,107
1920725,323,107
1920739,290,107
1920755,303,107
1920765,325,107
1920772,285,107
1920786,331,107
1920789,316,107
1920805,308,107
1920817,349,107
1920825,305,107
1920837,334,107
1920848,333,107
1920855,296,107
1920868,336,107
1920876,297,107
1920888,303,107
1920890,324,107
1920906,282,107
1920920,325,107
1920930,310,107
1920938,300,107
1920938,343,107
1920955,303,107
1920964,330,107
1920982,334,107
1920989,299,107
1921001,340,107
1921012,304,107
1921022,311,107
1921025,336,107
1921038,294,107
1921053,336,107
1921056,320,107
1921071,308,107
1921084,347,107
1921088,305,107
1921104,332,107
1921113,336,107
1921125,303,107
1921125,348,107
1921146,313,107
1921155,321,107
1921165,356,107
1921173,320,107
1921173,355,107
1921197,338,107
1921205,316,107
1921218,349,107
1921227,305,107
1921238,331,107
1921248,335,107
1921256,301,107
1921268,347,107
1921278,313,107
1921288,305,107
1921299,403,109
1921305,596,109
1921319,659,109
1921330,521,109
1921338,189,109
1921351,318,109
1921356,293,109
1921371,306,109
1921373,311,109
1921388,277,109
1921401,323,109
1921413,293,109
1921421,297,109
1921433,328,109
1921438,288,109
1921453,329,109
1921463,324,109
1921472,311,109
1921484,355,109
1921489,315,109
1921505,338,109
1921515,347,109
1921525,314,109
1921535,364,109
1921546,341,109
1921555,356,109
1921567,400,109
1921574,372,109
1921587,423,109
1921597,420,109
1921605,400,109
1921609,436,109
1921625,376,109
1921638,368,109
1921648,349,109
1921655,291,109
1921663,321,109
1921679,280,109
1921688,277,109
1921700,308,109
1921705,262,109
1921720,297,109
1921725,287,109
1921739,266,109
1921739,309,109
1921761,269,109
1921772,289,109
1921773,305,109
1921788,265,109
1921788,309,109
1921805,281,109
1921821,278,109
1921825,307,109
1921843,262,109
1921853,298,109
1921863,292,109
1921872,273,109
1921885,316,109
1921889,274,109
1921905,292,109
1921915,302,109
1921925,261,109
1921936,302,109
1921946,272,109
1921955,272,109
1921955,305,109
1921973,263,109
1921987,299,109
1921997,295,109
1922005,271,109
1922018,313,109
1922025,272,109
1922038,287,109
1922049,301,109
1922056,258,109
1922069,300,109
1922080,275,109
1922088,268,109
1922100,301,109
1922110,256,109
1922121,291,109
1922126,288,109
1922139,263,109
1922151,307,109
1922156,270,109
1922171,288,109
1922182,307,109
1922189,268,109
1922189,311,109
1922205,287,109
1922223,281,109
1922225,315,109
1922238,273,109
1922254,308,109
1922264,305,109
1922274,277,109
1922285,334,109
1922288,303,109
1922305,313,109
1922305,329,109
1922325,285,109
1922332,320,109
1922346,296,109
1922356,286,109
1922367,324,109
1922372,280,109
1922387,315,109
1922388,310,109
1922405,273,109
1922414,368,109
1922429,561,104
1922438,658,104
1922439,571,104
1922455,168,104
1922470,291,104
1922472,302,104
1922489,286,104
1922489,327,104
1922511,285,104
1922521,316,104
1922532,317,104
1922538,287,104
1922551,331,104
1922562,295,104
1922572,307,104
1922582,335,104
1922588,301,104
1922603,351,104
1922606,340,104
1922622,338,104
1922634,383,104
1922639,347,104
1922655,382,104
1922663,387,104
1922671,364,104
1922685,417,104
1922689,393,104
1922705,418,104
1922716,451,104
1922726,416,104
1922736,455,105
1922747,417,105
1922755,368,105
1922767,372,105
1922777,304,105
1922788,314,105
1922797,308,105
1922805,276,105
1922818,323,105
1922826,296,105
1922838,306,105
1922850,328,105
1922856,285,105
1922870,328,105
1922872,313,105
1922889,300,105
1922889,343,105
1922906,302,105
1922922,331,105
1922931,338,105
1922938,311,105
1922952,356,105
1922955,329,105
1922972,339,105
1922983,365,105
1922993,327,105
1923004,366,105
1923014,354,105
1923022,339,105
1923034,376,105
1923045,332,105
1923055,357,105
1923065,364,105
1923072,334,105
1923085,380,105
1923089,352,105
1923105,358,105
1923116,385,105
1923126,344,105
1923136,384,105
1923139,372,105
1923155,360,105
1923168,402,115
1923178,359,115
1923188,383,115
1923199,388,115
1923205,356,115
1923220,399,115
1923229,366,115
1923238,374,115
1923250,412,115
1923255,372,115
1923262,406,115
1923272,389,115
1923288,363,115
1923302,396,115
1923305,350,115
1923322,372,115
1923332,379,115
1923339,343,115
1923352,387,115
1923363,354,115
1923371,352,115
1923383,498,115
1923388,658,115
1923404,659,115
1923414,466,115
1923422,235,115
1923435,370,115
1923446,340,115
1923455,356,115
1923465,366,115
1923471,334,115
1923486,378,115
1923496,348,115
1923505,349,115
1923517,376,115
1923526,330,115
1923537,365,115
1923547,362,115
1923555,350,115
1923568,400,115
1923573,365,115
1923588,390,115
1923599,402,112
1923605,369,112
1923620,413,112
1923629,385,112
1923639,389,112
1923650,429,112
1923660,398,112
1923671,448,112
1923681,451,112
1923689,433,112
1923702,465,112
1923712,393,112
1923722,372,112
1923727,349,112
1923738,286,112
1923754,317,112
1923762,282,112
1923772,281,112
1923772,315,112
1923788,276,112
1923804,317,112
1923814,311,112
1923822,285,112
1923826,325,112
1923845,279,112
1923855,292,112
1923865,302,112
1923872,263,112
1923872,308,112
1923888,285,112
1923906,282,112
1923917,315,112
1923927,272,112
1923937,307,112
1923948,301,112
1923955,277,112
1923968,320,112
1923978,282,112
1923988,300,112
1923999,314,112
1924006,274,112
1924020,314,112
1924031,282,112
1924038,274,112
1924051,304,112
1924061,258,112
1924071,293,112
1924081,287,112
1924088,265,112
1924102,313,112
1924113,279,112
1924121,294,112
1924133,310,112
1924143,271,112
1924153,312,112
1924155,287,112
1924173,279,112
1924185,316,112
1924189,272,112
1924205,307,112
1924215,304,112
1924222,279,112
1924235,326,112
1924246,288,112
1924256,305,112
1924266,321,112
1924276,282,112
1924276,326,112
1924297,303,112
1924305,298,112
1924315,336,112
1924327,294,112
1924338,329,112
1924348,327,112
1924356,297,112
1924368,339,112
1924379,310,112
1924389,332,112
1924400,348,112
1924405,304,112
1924420,345,112
1924430,317,112
1924438,307,112
1924451,341,112
1924455,297,112
1924471,326,112
1924482,325,112
1924488,297,112
1924502,333,112
1924506,312,112
1924521,498,112
1924533,659,112
1924539,655,112
1924554,288,112
1924564,250,112
1924573,303,112
1924573,326,112
1924595,276,112
1924605,307,112
1924616,306,112
1924622,278,112
1924635,324,112
1924647,289,112
1924656,304,112
1924656,328,112
1924673,292,112
1924682,338,112
1924698,325,112
1924705,318,112
1924718,359,112
1924727,318,112
1924738,349,112
1924748,355,112
1924755,330,112
1924768,382,112
1924773,360,112
1924789,382,112
1924789,421,112
1924805,396,112
1924821,442,112
1924831,422,112
1924839,400,112
1924851,413,112
1924861,335,112
1924872,334,112
1924882,310,112
1924888,266,112
1924903,305,112
1924913,269,112
1924922,279,112
1924934,304,112
1924940,264,112
1924954,306,112
1924955,289,112
1924973,274,112
1924985,314,112
1924995,269,112
1925005,295,112
1925015,298,112
1925023,263,112
1925036,309,112
1925046,275,112
1925056,281,112
1925056,304,112
1925072,262,112
1925081,302,112
1925097,286,112
1925105,272,112
1925118,311,112
1925128,264,112
1925139,288,112
1925149,293,112
1925155,261,112
1925170,305,112
1925172,271,112
1925190,281,112
1925200,306,112
1925205,265,112
1925220,304,112
1925231,289,112
1925239,271,112
1925239,310,112
1925255,267,112
1925271,292,112
1925271,298,112
1925290,264,112
1925303,309,112
1925313,275,112
1925321,277,112
1925334,303,112
1925342,259,112
1925354,298,112
1925364,284,112
1925371,267,112
1925385,309,112
1925395,269,112
1925405,296,112
1925405,304,112
1925422,270,112
1925432,316,112
1925438,284,112
1925455,287,112
1925467,315,112
1925473,274,112
1925488,315,112
1925498,305,112
1925505,287,112
1925519,330,112
1925527,290,112
1925538,315,112
1925549,324,112
1925555,287,112
1925564,328,112
1925580,304,112
1925588,316,112
1925601,341,112
1925611,294,112
1925622,331,112
1925629,315,112
1925638,294,112
1925644,333,112
1925662,293,112
1925672,315,112
1925683,325,112
1925688,286,112
1925704,321,112
1925714,309,112
1925722,483,109
1925734,659,109
1925744,654,109
1925755,262,109
1925765,254,109
1925772,299,109
1925772,332,109
1925796,288,109
1925805,306,109
1925816,318,109
1925823,285,109
1925830,331,109
1925839,305,109
1925855,310,109
1925868,344,109
1925878,308,109
1925887,355,109
1925899,352,109
1925905,334,109
1925919,378,109
1925928,344,109
1925938,368,109
1925950,385,109
1925955,354,109
1925955,404,109
1925972,387,109
1925988,399,109
1926001,443,109
1926011,408,109
1926021,447,109
1926030,439,109
1926039,402,109
1926053,415,109
1926056,347,109
1926072,339,109
1926083,333,109
1926088,285,109
1926103,325,109
1926113,296,109
1926122,294,109
1926135,329,109
1926145,288,109
1926155,325,109
1926165,319,109
1926171,296,109
1926185,344,109
1926197,308,109
1926205,326,109
1926216,344,109
1926224,309,109
1926231,349,109
1926238,329,109
1926255,328,109
1926268,361,109
1926279,322,109
1926288,358,109
1926298,353,109
1926305,333,109
1926319,376,109
1926330,335,109
1926338,354,109
1926350,371,109
1926356,334,109
1926371,380,109
1926372,358,109
1926389,356,109
1926401,390,109
1926411,348,109
1926421,382,109
1926432,379,109
1926438,355,109
1926438,396,109
1926456,358,109
1926471,372,109
1926483,391,109
1926488,350,109
1926504,392,109
1926514,369,109
1926522,364,109
1926534,398,109
1926545,352,109
1926555,386,109
1926566,392,109
1926576,367,109
1926587,407,113
1926596,368,113
1926605,372,113
1926605,386,113
1926622,342,113
1926631,385,113
1926648,359,113
1926655,350,113
1926665,384,113
1926679,335,113
1926688,365,113
1926689,508,113
1926706,659,113
1926715,659,113
1926730,403,113
1926739,265,113
1926750,371,113
1926755,336,113
1926771,370,113
1926781,349,113
1926789,339,113
1926802,372,113
1926812,328,113
1926822,355,113
1926831,352,113
1926838,326,113
1926838,370,113
1926856,338,113
1926872,360,113
1926884,388,113
1926889,354,113
1926904,399,113
1926915,385,113
1926923,374,113
1926934,413,112
1926939,374,112
1926956,412,112
1926965,422,112
1926972,405,112
1926972,465,112
1926997,438,112
1927006,452,112
1927013,461,112
1927022,388,112
1927038,386,112
1927048,333,112
1927055,295,112
1927063,313,112
1927072,263,112
1927089,295,112
1927089,299,112
1927106,274,112
1927119,324,112
1927130,291,112
1927138,304,112
1927150,327,112
1927161,282,112
1927172,319,112
1927181,298,112
1927188,284,112
1927188,322,112
1927205,279,112
1927222,306,112
1927231,308,112
1927238,274,112
1927253,320,112
1927264,289,112
1927272,300,112
1927284,327,112
1927294,285,112
1927305,324,112
1927315,305,112
1927325,287,112
1927331,322,112
1927338,273,112
1927356,296,112
1927366,298,112
1927372,263,112
1927386,307,112
1927398,274,112
1927406,283,112
1927418,310,112
1927428,272,112
1927438,313,112
1927449,298,112
1927455,283,112
1927455,322,112
1927472,279,112
1927488,306,112
1927500,311,112
1927505,278,112
1927520,322,112
1927531,291,112
1927538,295,112
1927552,320,112
1927562,277,112
1927571,317,112
1927582,303,112
1927589,287,112
1927595,329,112
1927613,287,112
1927622,313,112
1927632,320,112
1927639,288,112
1927654,333,112
1927664,302,112
1927671,307,112
1927685,335,112
1927695,291,112
1927705,329,112
1927715,316,112
1927722,300,112
1927735,339,112
1927746,297,112
1927756,330,112
1927767,343,112
1927773,306,112
1927787,346,112
1927797,311,112
1927805,308,112
1927818,332,112
1927828,286,112
1927839,324,112
1927849,311,112
1927855,293,112
1927870,335,112
1927872,282,112
1927888,343,112
1927900,558,109
1927910,658,109
1927921,621,109
1927931,217,109
1927938,263,109
1927951,330,109
1927962,272,109
1927972,306,109
1927982,296,109
1927988,277,109
1927988,319,109
1928012,276,109
1928022,299,109
1928033,315,109
1928039,282,109
1928054,331,109
1928065,309,109
1928072,313,109
1928072,345,109
1928088,308,109
1928105,348,109
1928116,339,109
1928121,322,109
1928136,372,109
1928146,341,109
1928156,377,109
1928167,406,109
1928177,384,109
1928188,439,109
1928189,414,109
1928205,412,109
1928219,431,109
1928221,360,109
1928238,362,109
1928249,325,109
1928255,282,109
1928255,312,109
1928272,265,109
1928289,281,109
1928300,295,109
1928311,256,109
1928321,297,109
1928331,267,109
1928338,265,109
1928352,297,109
1928363,252,109
1928372,288,109
1928383,279,109
1928393,256,109
1928403,301,109
1928413,258,109
1928423,277,109
1928434,292,109
1928444,252,109
1928454,293,109
1928464,265,109
1928472,261,109
1928485,296,109
1928496,251,109
1928505,285,109
1928516,280,109
1928522,257,109
1928536,299,109
1928546,258,109
1928555,277,109
1928555,293,109
1928571,253,109
1928588,298,109
1928599,275,109
1928606,273,109
1928613,309,109
1928621,267,109
1928638,301,109
1928650,294,109
1928655,269,109
1928671,314,109
1928680,275,109
1928688,293,109
1928701,311,109
1928711,271,109
1928721,316,109
1928732,292,109
1928739,286,109
1928752,320,109
1928762,278,109
1928773,311,109
1928773,308,109
1928788,284,109
1928803,327,109
1928814,292,109
1928821,311,109
1928834,327,109
1928844,289,109
1928854,336,109
1928866,314,109
1928872,308,109
1928886,343,109
1928896,300,109
1928905,331,109
1928916,329,109
1928924,306,109
1928937,348,109
1928947,314,109
1928955,340,109
1928968,361,109
1928978,321,109
1928989,360,109
1928998,331,109
1929006,318,109
1929019,351,109
1929022,304,109
1929039,334,109
1929050,330,109
1929060,305,109
1929071,348,109
1929081,301,109
1929089,396,109
1929101,656,101
1929112,659,101
1929122,516,101
1929131,211,101
1929138,290,101
1929152,344,101
1929155,292,101
1929172,325,101
1929183,326,101
1929188,301,101
1929204,345,101
1929214,310,101
1929222,325,101
1929235,347,101
1929245,315,101
1929255,362,101
1929255,347,101
1929271,345,101
1929287,387,101
1929292,352,101
1929305,390,101
1929317,397,101
1929323,376,101
1929335,428,101
1929348,405,101
1929356,432,101
1929365,468,101
1929379,444,101
1929389,497,101
1929389,482,101
1929405,473,103
1929420,494,103
1929422,421,103
1929438,419,103
1929450,394,103
1929456,346,103
1929463,378,103
1929481,339,103
1929489,348,103
1929501,369,103
1929511,329,103
1929522,370,103
1929533,352,103
1929539,340,103
1929553,376,103
1929563,334,103
1929573,366,103
1929576,367,103
1929589,340,103
1929605,387,103
1929615,357,103
1929622,368,103
1929635,395,103
1929645,355,103
1929655,400,103
1929666,382,103
1929672,372,103
1929672,408,103
1929697,361,103
1929705,381,103
1929717,373,103
1929722,334,103
1929738,368,103
1929739,327,103
1929755,335,103
1929769,356,103
1929778,316,103
1929788,359,103
1929799,342,103
1929806,332,103
1929813,370,103
1929830,324,103
1929838,347,103
1929851,348,103
1929862,314,103
1929871,356,103
1929881,319,103
1929888,328,103
1929902,352,103
1929912,310,103
1929922,348,103
1929933,331,103
1929939,316,103
1929939,351,103
1929955,306,103
1929972,332,103
1929972,337,103
1929988,307,103
1930005,353,103
1930015,316,103
1930023,331,103
1930035,364,103
1930039,318,103
1930054,355,103
1930066,333,103
1930077,311,103
1930087,346,103
1930097,302,103
1930105,326,103
1930118,330,103
1930128,298,103
1930138,345,103
1930149,301,103
1930155,333,103
1930155,551,106
1930179,658,106
1930188,644,106
1930200,238,106
1930205,247,106
1930213,339,106
1930231,287,106
1930238,309,106
1930250,314,106
1930261,278,106
1930272,322,106
1930282,290,106
1930288,295,106
1930303,321,106
1930313,281,106
1930322,327,106
1930333,319,106
1930344,312,106
1930354,361,106
1930356,320,106
1930373,347,106
1930382,358,106
1930389,329,106
1930405,381,106
1930415,358,106
1930425,373,106
1930436,413,106
1930439,384,106
1930455,434,106
1930467,424,106
1930477,405,106
1930488,429,106
1930497,358,106
1930506,346,106
1930518,323,106
1930525,268,106
1930539,302,106
1930549,266,106
1930555,270,106
1930555,301,106
1930572,260,106
1930589,301,106
1930600,286,106
1930605,267,106
1930621,309,106
1930622,268,106
1930639,294,106
1930651,300,106
1930662,263,106
1930671,307,106
1930683,273,106
1930689,274,106
1930689,301,106
1930706,257,106
1930722,295,106
1930733,285,106
1930744,269,106
1930754,316,106
1930764,276,106
1930773,301,106
1930785,309,106
1930795,272,106
1930805,311,106
1930816,277,106
1930825,280,106
1930836,306,106
1930846,266,106
1930855,307,106
1930855,298,106
1930872,282,106
1930881,326,106
1930888,284,106
1930905,305,106
1930918,312,106
1930922,275,106
1930938,320,106
1930949,291,106
1930955,294,106
1930970,323,106
1930980,282,106
1930988,321,106
1931001,311,106
1931008,293,106
1931021,336,106
1931031,292,106
1931039,316,106
1931053,326,106
1931055,291,106
1931072,338,106
1931082,309,106
1931092,311,106
1931102,342,106
1931114,298,106
1931122,336,106
1931125,325,106
1931144,304,106
1931154,347,106
1931165,305,106
1931172,329,106
1931172,340,106
1931189,305,106
1931206,351,106
1931216,321,106
1931222,322,106
1931235,350,106
1931239,306,106
1931256,344,106
1931268,332,106
1931272,313,106
1931288,366,106
1931297,332,106
1931305,351,106
1931318,359,106
1931329,318,106
1931339,354,106
1931350,321,106
1931355,317,106
1931370,349,106
1931380,305,106
1931389,342,106
1931401,334,106
1931410,304,106
1931420,391,106
1931431,555,105
1931438,659,105
1931452,638,105
1931462,219,105
1931472,316,105
1931472,325,105
1931488,309,105
1931504,342,105
1931505,301,105
1931522,339,105
1931522,329,105
1931539,306,105
1931555,350,105
1931565,308,105
1931572,331,105
1931572,347,105
1931589,315,105
1931605,364,105
1931616,339,105
1931622,344,105
1931637,378,105
1931638,334,105
1931655,377,105
1931664,372,105
1931678,360,105
1931688,416,105
1931689,385,105
1931705,418,105
1931719,438,105
1931722,406,105
1931739,450,105
1931750,409,105
1931755,389,105
1931771,394,105
1931781,321,105
1931788,337,105
1931801,311,105
1931806,277,105
1931822,314,105
1931832,269,105
1931839,285,105
1931852,297,105
1931863,258,105
1931872,304,105
1931884,278,105
1931888,277,105
1931904,310,105
1931914,264,105
1931922,298,105
1931935,289,105
1931944,267,105
1931955,308,105
1931966,266,105
1931972,283,105
1931985,296,105
1931996,254,105
1932006,299,105
1932017,272,105
1932022,269,105
1932038,301,105
1932047,254,105
1932055,290,105
1932068,279,105
1932078,256,105
1932088,299,105
1932100,258,105
1932106,276,105
1932119,294,105
1932129,255,105
1932139,302,105
1932150,277,105
1932160,274,105
1932171,305,105
1932181,258,105
1932189,293,105
1932189,286,105
1932205,259,105
1932222,302,105
1932233,261,105
1932239,282,105
1932239,298,105
1932256,261,105
1932272,307,105
1932283,281,105
1932289,278,105
1932304,310,105
1932315,269,105
1932322,304,105
1932322,296,105
1932339,271,105
1932355,319,105
1932366,282,105
1932372,303,105
1932386,318,105
1932397,281,105
1932405,326,105
1932417,303,105
1932422,299,105
1932438,331,105
1932449,287,105
1932456,323,105
1932469,317,105
1932479,292,105
1932489,341,105
1932499,314,105
1932509,335,105
1932520,347,105
1932530,304,105
1932539,344,105
1932550,314,105
1932561,310,105
1932571,342,105
1932581,301,105
1932589,338,105
1932602,331,105
1932612,307,105
1932622,345,105
1932623,421,99
1932640,658,99
1932653,659,99
1932663,396,99
1932671,250,99
1932684,312,99
1932689,316,99
1932705,341,99
1932706,297,99
1932722,330,99
1932735,326,99
1932746,304,99
1932755,351,99
1932767,315,99
1932772,334,99
1932772,352,99
1932797,317,99
1932807,365,99
1932814,343,99
1932822,346,99
1932838,392,99
1932840,360,99
1932856,410,99
1932865,417,99
1932879,405,99
1932888,467,99
1932900,444,99
1932906,476,99
1932913,506,99
1932923,474,99
1932940,519,100
1932951,487,100
1932956,462,100
1932965,464,100
1932972,385,100
1932989,396,100
1933003,376,100
1933012,342,100
1933021,386,100
1933033,349,100
1933043,370,100
1933054,389,100
1933064,351,100
1933072,397,100
1933084,372,100
1933089,366,100
1933105,397,100
1933115,351,100
1933124,382,100
1933135,371,100
1933145,342,100
1933155,382,100
1933166,340,100
1933177,354,100
1933187,372,100
1933198,336,100
1933204,387,100
1933218,366,100
1933222,359,100
1933238,390,100
1933249,340,100
1933259,366,100
1933269,350,100
1933272,312,100
1933289,346,100
1933300,302,100
1933306,315,100
1933306,332,100
1933331,296,100
1933341,344,100
1933341,325,100
1933356,321,100
1933372,354,100
1933382,308,100
1933389,339,100
1933402,332,100
1933412,305,100
1933422,350,100
1933434,313,100
1933440,329,100
1933454,344,100
1933464,302,100
1933474,343,100
1933474,318,100
1933489,309,100
1933505,339,100
1933516,294,100
1933522,328,100
1933537,326,100
1933546,299,100
1933555,342,100
1933567,309,100
1933576,334,100
1933588,354,100
1933598,310,100
1933605,349,100
1933618,317,100
1933628,305,100
1933638,339,100
1933650,294,100
1933656,327,100
1933656,326,100
1933673,299,100
1933689,338,100
1933700,299,100
1933705,454,103
1933721,658,103
1933722,656,103
1933740,316,103
1933751,219,103
1933762,292,103
1933772,324,103
1933782,274,103
1933788,309,103
1933788,308,103
1933806,281,103
1933823,324,103
1933823,286,103
1933844,302,103
1933854,322,103
1933864,289,103
1933873,341,103
1933873,325,103
1933888,325,103
1933905,364,103
1933916,319,103
1933921,356,103
1933936,357,103
1933947,334,103
1933955,385,103
1933968,360,103
1933977,387,103
1933988,421,103
1933997,393,103
1934005,446,103
1934018,426,103
1934029,410,103
1934038,424,103
1934049,342,103
1934055,342,103
1934070,315,103
1934080,270,103
1934088,309,103
1934101,274,103
1934106,290,103
1934122,312,103
1934132,276,103
1934141,317,103
1934152,295,103
1934162,286,103
1934172,322,103
1934173,276,103
1934189,306,103
1934204,304,103
1934206,274,103
1934222,318,103
1934234,278,103
1934241,291,103
1934254,309,103
1934263,269,103
1934272,315,103
1934272,296,103
1934296,292,103
1934305,328,103
1934317,286,103
1934322,313,103
1934322,311,103
1934341,279,103
1934355,320,103
1934368,280,103
1934378,291,103
1934388,311,103
1934399,272,103
1934405,320,103
1934419,299,103
1934428,295,103
1934439,331,103
1934450,285,103
1934455,315,103
1934455,311,103
1934481,282,103
1934488,327,103
1934502,289,103
1934511,305,103
1934521,328,103
1934532,286,103
1934541,330,103
1934552,308,103
1934556,298,103
1934572,335,103
1934583,288,103
1934589,320,103
1934589,319,103
1934613,293,103
1934622,340,103
1934634,304,103
1934641,317,103
1934655,338,103
1934665,296,103
1934672,338,103
1934686,315,103
1934697,305,103
1934705,340,103
1934717,296,103
1934722,327,103
1934737,329,103
1934747,303,103
1934755,348,103
1934768,312,103
1934773,333,103
1934788,357,103
1934799,310,103
1934806,348,103
1934819,322,103
1934830,306,103
1934839,344,103
1934851,298,103
1934861,329,103
1934871,328,103
1934880,299,103
1934888,338,103
1934901,293,103
1934911,390,103
1934921,652,103
1934923,658,103
1934941,476,103
1934953,214,103
1934963,288,103
1934972,334,103
1934984,276,103
1934994,308,103
1935004,307,103
1935014,276,103
1935022,322,103
1935036,284,103
1935045,296,103
1935055,322,103
1935066,283,103
1935075,329,103
1935075,312,103
1935089,305,103
1935106,345,103
1935116,304,103
1935121,338,103
1935137,341,103
1935141,312,103
1935155,363,103
1935169,337,103
1935172,363,103
1935189,401,103
1935189,374,103
1935205,424,103
1935220,405,103
1935230,390,103
1935238,408,102
1935250,336,102
1935255,333,102
1935271,308,102
1935281,260,102
1935288,298,102
1935301,262,102
1935312,275,102
1935322,301,102
1935332,259,102
1935342,301,102
1935353,277,102
1935356,267,102
1935372,304,102
1935384,258,102
1935389,287,102
1935405,291,102
1935414,260,102
1935422,305,102
1935422,271,102
1935446,284,102
1935455,308,102
1935466,262,102
1935472,306,102
1935486,289,102
1935489,276,102
1935505,316,102
1935517,273,102
1935527,303,102
1935539,304,102
1935548,276,102
1935555,321,102
1935568,283,102
1935579,293,102
1935589,316,102
1935589,272,102
1935605,314,102
1935621,295,102
1935627,283,102
1935638,322,102
1935650,281,102
1935661,312,102
1935672,315,102
1935682,285,102
1935689,335,102
1935689,300,102
1935712,308,102
1935722,330,102
1935733,288,102
1935743,329,102
1935753,309,102
1935764,297,102
1935772,336,102
1935785,294,102
1935788,325,102
1935805,330,102
1935815,301,102
1935826,349,102
1935836,316,102
1935842,327,102
1935855,351,102
1935866,310,102
1935877,349,102
1935887,330,102
1935897,317,102
1935905,354,102
1935918,313,102
1935927,344,102
1935938,351,102
1935949,323,102
1935955,372,102
1935969,339,102
1935980,347,102
1935989,379,102
1936000,346,102
1936005,384,102
1936020,363,102
1936031,347,102
1936039,379,102
1936052,337,102
1936056,366,102
1936072,374,102
1936083,347,102
1936088,396,102
1936102,365,102
1936106,363,102
1936122,443,100
1936134,639,100
1936143,660,100
1936154,652,100
1936164,266,100
1936174,358,100
1936174,358,100
1936195,376,100
1936205,377,100
1936214,346,100
1936222,392,100
1936235,354,100
1936243,362,100
1936256,384,100
1936267,340,100
1936272,380,100
1936272,364,100
1936298,360,100
1936306,409,100
1936317,373,100
1936328,411,100
1936338,422,100
1936349,395,100
1936355,444,100
1936355,414,100
1936380,431,100
1936389,466,100
1936400,439,100
1936411,494,100
1936421,490,100
1936431,483,100
1936438,521,100
1936452,464,100
1936462,460,100
1936472,425,100
1936483,357,100
1936488,372,100
1936503,320,100
1936513,320,100
1936522,345,100
1936533,306,100
1936544,349,100
1936554,333,100
1936556,317,100
1936572,353,100
1936582,306,100
1936595,327,100
1936606,326,100
1936614,295,100
1936623,339,100
1936623,307,100
1936647,318,100
1936656,342,100
1936667,295,100
1936674,332,100
1936687,311,100
1936698,295,100
1936705,334,100
1936719,293,100
1936729,319,100
1936739,324,100
1936743,290,100
1936755,333,100
1936769,295,100
1936772,296,100
1936788,315,100
1936801,268,100
1936810,305,100
1936822,291,100
1936831,279,100
1936838,325,100
1936852,285,100
1936856,315,100
1936872,321,100
1936883,287,100
1936889,332,100
1936889,296,100
1936906,300,100
1936922,323,100
1936922,278,100
1936943,318,100
1936943,303,100
1936955,287,100
1936971,325,100
1936985,281,100
1936996,307,100
1937006,313,100
1937012,278,100
1937021,324,100
1937036,290,100
1937047,295,100
1937056,322,100
1937068,279,100
1937078,320,100
1937088,305,100
1937098,287,100
1937106,328,100
1937119,283,100
1937126,309,100
1937138,314,100
1937150,281,100
1937155,329,100
1937170,294,100
1937180,304,100
1937188,343,100
1937201,303,100
1937205,337,100
1937221,322,100
1937232,297,100
1937238,333,100
1937253,288,100
1937256,314,100
1937272,318,100
1937283,283,100
1937289,329,100
1937304,293,100
1937315,294,100
1937322,438,101
1937335,648,101
1937344,658,101
1937355,395,101
1937356,205,101
1937372,336,101
1937386,294,101
1937389,308,101
1937405,316,101
1937417,283,101
1937427,331,101
1937437,299,101
1937448,305,101
1937455,336,101
1937468,292,101
1937478,333,101
1937488,321,101
1937498,309,101
1937505,355,101
1937519,320,101
1937525,352,101
1937539,366,101
1937551,333,101
1937557,383,101
1937564,356,101
1937581,368,101
1937589,406,101
1937601,375,101
1937605,423,101
1937622,418,101
1937632,402,101
1937638,442,101
1937652,384,101
1937663,382,101
1937672,356,101
1937684,294,101
1937689,320,101
1937704,276,101
1937714,274,101
1937724,305,101
1937734,264,101
1937745,306,101
1937755,294,101
1937766,276,101
1937772,317,101
1937786,273,101
1937796,297,101
1937806,306,101
1937806,270,101
1937822,316,101
1937838,287,101
1937844,294,101
1937855,325,101
1937868,282,101
1937879,318,101
1937889,304,101
1937889,284,101
1937906,326,101
1937915,282,101
1937922,307,101
1937939,317,101
1937950,282,101
1937961,326,101
1937971,296,101
1937982,298,101
1937988,326,101
1938002,282,101
1938012,324,101
1938022,314,101
1938025,298,101
1938038,345,101
1938053,305,101
1938055,328,101
1938073,336,101
1938084,298,101
1938088,341,101
1938104,310,101
1938114,311,101
1938121,342,101
1938136,300,101
1938145,341,101
1938155,330,101
1938166,310,101
1938172,353,101
1938187,310,101
1938197,331,101
1938206,339,101
1938218,303,101
1938224,349,101
1938238,320,101
1938248,323,101
1938256,353,101
1938268,310,101
1938279,349,101
1938289,337,101
1938289,315,101
1938305,357,101
1938320,314,101
1938330,337,101
1938338,347,101
1938351,311,101
1938356,359,101
1938372,329,101
1938382,329,101
1938388,367,101
1938393,326,101
1938412,358,101
1938422,342,101
1938433,315,101
1938439,350,101
1938445,304,101
1938463,326,101
1938472,338,101
1938484,301,101
1938494,346,101
1938505,315,101
1938515,305,101
1938521,394,101
1938536,574,101
1938546,659,101
1938555,557,101
1938555,190,101
1938571,314,101
1938586,297,101
1938598,304,101
1938605,314,101
1938617,277,101
1938627,324,101
1938638,294,101
1938649,290,101
1938655,323,101
1938669,280,101
1938675,318,101
1938688,312,101
1938699,297,101
1938705,343,101
1938720,304,101
1938731,328,101
1938739,343,101
1938751,308,101
1938756,357,101
1938771,335,101
1938782,341,101
1938788,382,101
1938802,348,101
1938806,399,101
1938822,398,101
1938833,380,101
1938838,423,101
1938853,369,101
1938864,361,101
1938874,342,101
1938885,275,101
1938889,301,101
1938905,261,101
1938915,257,101
1938925,293,101
1938936,251,101
1938945,290,101
1938955,282,101
1938967,259,101
1938975,301,101
1938987,256,101
1938994,274,101
1939005,289,101
1939018,250,101
1939029,295,101
1939038,270,101
1939049,267,101
1939056,304,101
1939056,263,101
1939080,302,101
1939088,299,101
1939101,279,101
1939105,324,101
1939120,283,101
1939130,301,101
1939139,315,101
1939151,275,101
1939155,318,101
1939172,290,101
1939183,288,101
1939189,321,101
1939203,276,101
1939212,313,101
1939222,306,101
1939233,282,101
1939239,326,101
1939254,284,101
1939264,301,101
1939272,319,101
1939285,284,101
1939295,326,101
1939305,303,101
1939306,302,101
1939322,337,101
1939337,293,101
1939346,331,101
1939356,328,101
1939366,301,101
1939377,346,101
1939388,304,101
1939397,322,101
1939405,338,101
1939419,300,101
1939425,346,101
1939439,321,101
1939449,322,101
1939456,357,101
1939469,311,101
1939480,354,101
1939490,360,101
1939501,330,101
1939511,372,101
1939521,326,101
1939531,336,101
1939538,350,101
1939552,309,101
1939562,353,101
1939572,327,101
1939582,320,101
1939589,352,101
1939603,297,101
1939614,357,101
1939622,547,101
1939634,659,101
1939644,657,101
1939655,259,101
1939665,276,101
1939672,354,101
1939685,317,101
1939696,356,101
1939705,337,101
1939715,335,101
1939722,374,101
1939737,336,101
1939746,373,101
1939755,374,101
1939768,351,101
1939778,396,101
1939788,363,101
1939798,386,101
1939805,411,101
1939819,378,101
1939829,427,101
1939838,407,101
1939850,405,101
1939855,447,101
1939870,414,101
1939873,461,101
1939889,471,101
1939901,460,101
1939911,517,101
1939921,486,101
1939932,501,101
1939938,504,101
1939952,434,101
1939962,442,101
1939972,387,101
1939983,359,101
1939988,381,101
1940004,334,101
1940014,367,101
1940023,365,101
1940035,342,101
1940046,386,101
1940054,345,101
1940059,356,101
1940074,370,101
1940083,326,101
1940089,367,101
1940106,343,101
1940116,338,101
1940127,375,101
1940137,332,101
1940148,364,101
1940155,362,101
1940168,332,101
1940172,375,101
1940189,337,101
1940198,350,101
1940205,368,101
1940205,326,101
1940222,366,101
1940239,339,101
1940247,324,101
1940255,351,101
1940270,300,101
1940281,328,101
1940289,321,101
1940289,290,101
1940305,337,101
1940322,301,101
1940323,314,101
1940339,335,101
1940353,293,101
1940363,333,101
1940372,309,101
1940383,296,101
1940394,332,101
1940403,287,101
1940414,318,101
1940422,321,101
1940435,292,101
1940445,337,101
1940455,299,101
1940465,308,101
1940473,327,101
1940486,283,101
1940489,322,101
1940505,298,101
1940516,285,101
1940523,322,101
1940523,279,101
1940547,307,101
1940555,309,101
1940568,293,101
1940578,344,101
1940588,299,101
1940600,308,101
1940605,325,101
1940605,278,101
1940630,319,101
1940638,298,101
1940650,286,101
1940655,321,101
1940663,276,101
1940681,302,101
1940688,304,101
1940702,419,103
1940712,658,103
1940722,654,103
1940733,258,103
1940739,238,103
1940754,269,103
1940756,308,103
1940772,282,103
1940783,270,103
1940794,306,103
1940804,260,103
1940814,288,103
1940821,292,103
1940835,261,103
1940839,310,103
1940855,279,103
1940866,298,103
1940872,330,103
1940872,296,103
1940897,344,103
1940905,327,103
1940914,320,103
1940928,366,103
1940938,330,103
1940949,370,103
1940956,390,103
1940963,376,103
1940979,440,103
1940989,416,103
1940989,430,103
1941006,452,104
1941020,396,104
1941031,410,104
1941039,350,104
1941051,302,104
1941060,321,104
1941071,262,104
1941081,289,104
1941088,298,104
1941102,272,104
1941113,322,104
1941121,287,104
1941132,291,104
1941138,312,104
1941153,269,104
1941164,310,104
1941173,290,104
1941173,279,104
1941194,321,104
1941205,275,104
1941215,304,104
1941222,307,104
1941235,274,104
1941246,318,104
1941255,281,104
1941255,290,104
1941272,316,104
1941281,274,104
1941297,318,104
1941306,302,104
1941315,286,104
1941328,323,104
1941338,277,104
1941349,298,104
1941356,300,104
1941369,265,104
1941379,312,104
1941388,281,104
1941399,293,104
1941405,325,104
1941405,287,104
1941431,329,104
1941438,313,104
1941451,295,104
1941461,331,104
1941471,284,104
1941482,308,104
1941489,314,104
1941502,284,104
1941512,334,104
1941522,305,104
1941533,316,104
1941543,343,104
1941554,297,104
1941565,334,104
1941572,314,104
1941572,296,104
1941595,337,104
1941605,298,104
1941615,328,104
1941622,339,104
1941622,310,104
1941646,355,104
1941656,320,104
1941667,323,104
1941674,346,104
1941687,300,104
1941697,343,104
1941706,331,104
1941718,320,104
1941727,363,104
1941739,321,104
1941748,347,104
1941755,354,104
1941769,315,104
1941780,359,104
1941789,323,104
1941800,329,104
1941810,357,104
1941821,317,104
1941831,358,104
1941839,354,104
1941851,352,104
1941862,385,104
1941872,335,104
1941882,353,104
1941889,349,104
1941889,310,104
1941906,354,104
1941922,321,104
1941934,328,104
1941939,359,104
1941954,316,104
1941964,345,104
1941972,394,104
1941984,605,102
1941989,659,102
1942005,557,102
1942015,232,102
1942025,320,102
1942036,310,102
1942046,343,102
1942055,312,102
1942067,317,102
1942076,345,102
1942088,301,102
1942097,339,102
1942106,323,102
1942118,307,102
1942126,351,102
1942139,315,102
1942149,345,102
1942155,361,102
1942170,329,102
1942180,376,102
1942190,349,102
1942200,353,102
1942205,382,102
1942221,340,102
1942224,383,102
1942238,385,102
1942252,386,102
1942262,443,102
1942272,412,102
1942275,442,102
1942289,449,102
1942303,400,102
1942314,417,102
1942322,354,102
1942322,327,102
1942344,335,102
1942355,278,102
1942364,312,102
1942372,297,102
1942386,279,102
1942389,321,102
1942405,277,102
1942416,300,102
1942422,309,102
1942437,274,102
1942439,320,102
1942455,289,102
1942467,291,102
1942477,315,102
1942488,269,102
1942498,307,102
1942505,294,102
1942518,272,102
1942530,314,102
1942539,272,102
1942549,294,102
1942555,307,102
1942570,270,102
1942580,314,102
1942589,281,102
1942589,278,102
1942611,304,102
1942621,260,102
1942631,297,102
1942640,288,102
1942649,268,102
1942663,312,102
1942672,273,102
1942672,295,102
1942689,305,102
1942704,267,102
1942713,311,102
1942722,280,102
1942734,280,102
1942739,311,102
1942755,267,102
1942765,306,102
1942772,297,102
1942786,275,102
1942796,317,102
1942805,274,102
1942816,294,102
1942821,304,102
1942837,269,102
1942847,314,102
1942855,287,102
1942867,287,102
1942878,323,102
1942888,279,102
1942899,316,102
1942905,305,102
1942919,286,102
1942929,328,102
1942939,287,102
1942950,309,102
1942955,322,102
1942970,286,102
1942981,331,102
1942989,305,102
1942989,306,102
1943011,335,102
1943021,289,102
1943023,323,102
1943039,314,102
1943049,292,102
1943056,334,102
1943072,291,102
1943083,323,102
1943093,347,102
1943104,303,102
1943113,344,102
1943122,313,102
1943135,301,102
1943139,333,102
1943155,289,102
1943165,324,102
1943172,316,102
1943185,297,102
1943196,341,102
1943205,291,102
1943217,334,102
1943224,539,101
1943238,658,101
1943247,652,101
1943256,233,101
1943268,246,101
1943278,335,101
1943289,282,101
1943299,316,101
1943305,307,101
1943319,287,101
1943330,334,101
1943338,293,101
1943350,312,101
1943356,334,101
1943356,299,101
1943373,349,101
1943389,331,101
1943401,341,101
1943412,380,101
1943422,338,101
1943433,379,101
1943439,378,101
1943453,359,101
1943463,409,101
1943473,377,101
1943484,408,101
1943494,443,101
1943504,422,101
1943506,479,101
1943522,459,101
1943535,454,101
1943539,478,101
1943555,409,101
1943566,410,101
1943572,372,101
1943587,328,101
1943597,355,101
1943605,304,101
1943617,319,101
1943622,336,101
1943638,298,101
1943649,342,101
1943655,318,101
1943669,314,101
1943673,348,101
1943688,305,101
1943699,345,101
1943706,346,101
1943720,324,101
1943722,367,101
1943739,332,101
1943750,351,101
1943761,368,101
1943771,331,101
1943776,375,101
1943788,352,101
1943802,349,101
1943812,381,101
1943821,337,101
1943833,367,101
1943839,359,101
1943853,330,101
1943856,372,101
1943872,335,101
1943884,353,101
1943890,370,101
1943904,335,101
1943905,378,101
1943922,353,101
1943935,348,101
1943939,384,101
1943956,341,101
1943956,373,101
1943972,371,101
1943987,347,101
1943997,392,101
1944005,353,101
1944018,371,101
1944022,389,101
1944039,351,101
1944048,395,101
1944055,367,101
1944068,358,101
1944079,391,101
1944089,347,101
1944100,376,101
1944105,376,101
1944120,364,101
1944130,410,107
1944138,361,107
1944151,372,107
1944161,380,107
1944171,333,107
1944182,373,107
1944189,349,107
1944202,338,107
1944206,372,107
1944222,329,107
1944233,357,107
1944239,350,107
1944254,443,107
1944263,659,107
1944272,659,107
1944272,439,107
1944295,253,107
1944305,300,107
1944316,349,107
1944322,316,107
1944335,306,107
1944345,340,107
1944355,294,107
1944366,325,107
1944372,323,107
1944387,295,107
1944397,339,107
1944406,304,107
1944406,326,107
1944428,355,107
1944438,322,107
1944449,370,107
1944455,352,107
1944469,349,107
1944472,389,107
1944488,345,107
1944500,380,107
1944505,386,107
1944514,369,107
1944531,429,105
1944539,404,105
1944552,425,105
1944562,447,105
1944571,399,105
1944581,415,105
1944589,354,105
1944602,309,105
1944606,314,105
1944623,247,105
1944632,272,105
1944639,274,105
1944654,253,105
1944664,302,105
1944672,271,105
1944684,289,105
1944695,309,105
1944706,265,105
1944715,303,105
1944723,278,105
1944727,266,105
1944746,301,105
1944755,257,105
1944767,290,105
1944777,290,105
1944788,262,105
1944798,302,105
1944805,263,105
1944818,274,105
1944828,296,105
1944839,255,105
1944840,300,105
1944855,280,105
1944870,273,105
1944880,310,105
1944889,263,105
1944900,291,105
1944905,285,105
1944921,253,105
1944922,298,105
1944938,262,105
1944952,275,105
1944956,299,105
1944972,263,105
1944973,306,105
1944988,286,105
1944988,275,105
1945007,310,105
1945022,264,105
1945034,293,105
1945038,293,105
1945054,262,105
1945065,310,105
1945072,278,105
1945085,289,105
1945095,312,105
1945105,271,105
1945116,315,105
1945123,295,105
1945123,284,105
1945140,321,105
1945156,277,105
1945167,308,105
1945172,310,105
1945187,280,105
1945198,328,105
1945205,291,105
1945219,303,105
1945226,326,105
1945239,284,105
1945249,328,105
1945257,308,105
1945270,298,105
1945272,338,105
1945289,294,105
1945301,325,105
1945306,326,105
1945321,297,105
1945331,341,105
1945339,304,105
1945352,315,105
1945362,337,105
1945372,296,105
1945383,337,105
1945388,324,105
1945403,327,105
1945414,360,105
1945422,313,105
1945434,340,105
1945445,336,105
1945455,301,105
1945464,344,105
1945473,308,105
1945485,316,105
1945496,337,105
1945506,295,105
1945516,329,105
1945522,331,105
1945537,499,101
1945540,659,101
1945556,655,101
1945568,281,101
1945578,275,101
1945588,303,101
1945598,332,101
1945606,290,101
1945619,300,101
1945629,325,101
1945639,284,101
1945650,327,101
1945655,311,101
1945671,301,101
1945680,341,101
1945688,303,101
1945700,337,101
1945711,346,101
1945721,321,101
1945723,371,101
1945739,343,101
1945750,352,101
1945762,378,101
1945772,343,101
1945783,392,101
1945789,384,101
1945804,389,101
1945814,441,101
1945822,410,101
1945835,443,101
1945839,446,101
1945855,407,101
1945865,432,101
1945876,366,101
1945886,345,101
1945889,344,101
1945905,286,101
1945916,320,101
1945924,301,101
1945937,287,101
1945939,327,101
1945955,282,101
1945968,309,101
1945979,311,101
1945988,279,101
1945998,323,101
1946006,287,101
1946019,295,101
1946030,316,101
1946039,274,101
1946049,314,101
1946055,298,101
1946055,283,101
1946073,323,101
1946089,281,101
1946101,306,101
1946106,309,101
1946115,277,101
1946132,323,101
1946139,288,101
1946151,294,101
1946156,319,101
1946172,275,101
1946184,316,101
1946188,296,101
1946204,280,101
1946213,320,101
1946222,276,101
1946222,304,101
1946239,310,101
1946255,278,101
1946266,326,101
1946272,294,101
1946286,299,101
1946289,320,101
1946305,274,101
1946312,313,101
1946327,295,101
1946337,281,101
1946348,320,101
1946355,279,101
1946368,309,101
1946379,316,101
1946388,284,101
1946400,327,101
1946405,292,101
1946420,299,101
1946430,323,101
1946439,279,101
1946450,321,101
1946461,305,101
1946471,292,101
1946473,334,101
1946488,291,101
1946502,319,101
1946505,323,101
1946522,289,101
1946531,333,101
1946539,298,101
1946553,305,101
1946556,329,101
1946572,296,101
1946584,344,101
1946589,328,101
1946604,310,101
1946615,345,101
1946622,294,101
1946635,317,101
1946646,317,101
1946656,286,101
1946666,329,101
1946676,295,101
1946686,303,101
1946697,316,101
1946706,326,101
1946718,599,99
1946727,659,99
1946739,573,99
1946748,232,99
1946756,256,99
1946756,317,99
1946772,311,99
1946788,275,99
1946790,324,99
1946807,294,99
1946821,302,99
1946826,327,99
1946840,290,99
1946851,332,99
1946861,317,99
1946871,309,99
1946881,355,99
1946889,318,99
1946901,350,99
1946912,364,99
1946921,338,99
1946933,390,99
1946939,363,99
1946953,375,99
1946964,407,99
1946974,373,99
1946984,424,99
1946994,421,99
1947005,418,99
1947015,467,99
1947025,426,99
1947035,445,99
1947038,425,99
1947056,359,99
1947066,370,99
1947072,315,99
1947087,307,99
1947097,330,99
1947105,288,99
1947118,330,99
1947128,316,99
1947138,299,99
1947149,340,99
1947155,300,99
1947170,322,99
1947179,324,99
1947189,295,99
1947200,344,99
1947206,311,99
1947220,322,99
1947223,350,99
1947238,309,99
1947238,349,99
1947262,335,99
1947271,323,99
1947272,360,99
1947290,319,99
1947303,343,99
1947306,348,99
1947323,311,99
1947323,356,99
1947343,321,99
1947353,325,99
1947364,353,99
1947372,312,99
1947385,347,99
1947395,335,99
1947405,319,99
1947407,358,99
1947423,319,99
1947433,345,99
1947446,353,99
1947457,322,99
1947467,366,99
1947472,334,99
1947488,341,99
1947498,369,99
1947506,328,99
1947506,366,99
1947523,351,99
1947539,336,99
1947549,378,99
1947555,339,99
1947569,363,99
1947580,379,99
1947589,356,99
1947589,398,99
1947605,367,99
1947621,365,99
1947632,380,99
1947639,333,99
1947639,370,99
1947662,355,99
1947671,337,99
1947683,380,99
1947689,340,99
1947703,353,99
1947707,394,99
1947722,575,104
1947734,660,104
1947739,656,104
1947754,267,104
1947764,316,104
1947772,326,104
1947785,357,104
1947789,340,104
1947805,326,104
1947816,367,104
1947826,328,104
1947836,353,104
1947839,361,104
1947856,328,104
1947865,375,104
1947873,346,104
1947888,360,104
1947889,397,104
1947905,362,104
1947919,407,104
1947924,399,104
1947939,383,104
1947939,425,104
1947956,385,104
1947969,413,104
1947973,429,104
1947989,408,104
1948001,467,104
1948009,451,104
1948021,464,104
1948022,489,104
1948039,429,104
1948039,432,104
1948056,376,104
1948072,322,104
1948082,337,104
1948089,282,104
1948103,300,104
1948112,312,104
1948123,285,104
1948123,333,104
1948139,303,104
1948154,305,104
1948165,328,104
1948172,281,104
1948185,315,104
1948189,296,104
1948205,276,104
1948216,316,104
1948222,275,104
1948237,299,104
1948247,303,104
1948256,267,104
1948268,312,104
1948277,279,104
1948289,284,104
1948289,314,104
1948305,272,104
1948311,312,104
1948323,301,104
1948339,285,104
1948350,323,104
1948356,276,104
1948370,296,104
1948372,302,104
1948389,263,104
1948389,305,104
1948406,272,104
1948415,276,104
1948432,306,104
1948439,263,104
1948452,304,104
1948457,294,104
1948472,274,104
1948482,314,104
1948488,272,104
1948504,296,104
1948514,304,104
1948522,271,104
1948534,318,104
1948539,285,104
1948555,289,104
1948565,319,104
1948573,276,104
1948585,316,104
1948595,305,104
1948606,287,104
1948617,330,104
1948627,288,104
1948637,312,104
1948640,322,104
1948657,291,104
1948667,335,104
1948678,304,104
1948688,308,104
1948699,336,104
1948705,293,104
1948719,331,104
1948730,316,104
1948739,298,104
1948750,339,104
1948757,306,104
1948771,337,104
1948781,345,104
1948789,307,104
1948802,349,104
1948811,312,104
1948821,311,104
1948831,338,104
1948839,294,104
1948852,333,104
1948863,319,104
1948873,299,104
1948883,327,104
1948889,315,104
1948889,533,106
1948905,659,106
1948922,630,106
1948934,262,106
1948945,258,106
1948955,308,106
1948966,323,106
1948973,274,106
1948986,313,106
1948989,299,106
1949005,282,106
1949017,324,106
1949024,282,106
1949037,309,106
1949039,320,106
1949057,291,106
1949066,342,106
1949072,314,106
1949088,323,106
1949100,354,106
1949105,312,106
1949114,352,106
1949130,345,106
1949138,333,106
1949138,383,106
1949157,354,106
1949171,392,106
1949172,414,106
1949190,389,106
1949202,441,106
1949212,410,106
1949222,403,106
1949232,409,106
1949238,331,106
1949253,339,106
1949258,303,106
1949273,269,106
1949283,306,106
1949294,260,106
1949304,288,106
1949307,299,106
1949322,264,106
1949335,308,106
1949339,276,106
1949355,279,106
1949365,306,106
1949376,264,106
1949387,303,106
1949390,290,106
1949406,272,106
1949406,313,106
1949423,271,106
1949437,291,106
1949448,299,106
1949457,264,106
1949469,309,106
1949473,276,106
1949489,282,106
1949500,313,106
1949506,271,106
1949520,309,106
1949530,296,106
1949540,276,106
1949540,318,106
1949561,276,106
1949571,302,106
1949581,311,106
1949589,276,106
1949602,325,106
1949612,296,106
1949622,301,106
1949623,333,106
1949639,287,106
1949653,329,106
1949658,315,106
1949673,294,106
1949673,334,106
1949694,290,106
1949705,314,106
1949715,324,106
1949722,292,106
1949722,339,106
1949746,312,106
1949755,317,106
1949766,345,106
1949772,302,106
1949787,339,106
1949797,325,106
1949806,306,106
1949817,348,106
1949826,306,106
1949838,330,106
1949849,340,106
1949858,307,106
1949869,353,106
1949874,323,106
1949889,326,106
1949890,354,106
1949905,310,106
1949921,348,106
1949931,334,106
1949939,314,106
1949950,364,106
1949960,330,106
1949972,355,106
1949982,356,106
1949989,318,106
1950002,357,106
1950006,320,106
1950022,320,106
1950033,349,106
1950044,304,106
1950054,341,106
1950064,328,106
1950072,302,106
1950085,347,106
1950095,450,100
1950105,658,100
1950115,658,100
1950123,302,100
1950135,261,100
1950146,304,100
1950156,296,100
1950167,314,100
1950172,270,100
1950187,307,100
1950198,294,100
1950206,275,100
1950219,319,100
1950229,280,100
1950239,307,100
1950249,319,100
1950258,291,100
1950269,340,100
1950280,310,100
1950290,315,100
1950301,348,100
1950306,307,100
1950306,352,100
1950331,343,100
1950340,333,100
1950340,385,100
1950362,355,100
1950372,392,100
1950382,412,100
1950390,384,100
1950403,427,102
1950413,389,102
1950423,371,102
1950423,366,102
1950440,290,102
1950440,303,102
1950464,277,102
1950472,254,102
1950484,296,102
1950495,259,102
1950505,290,102
1950513,300,102
1950522,268,102
1950537,311,102
1950547,279,102
1950556,279,102
1950567,307,102
1950573,268,102
1950588,302,102
1950598,285,102
1950606,268,102
1950612,309,102
1950629,268,102
1950639,295,102
1950639,306,102
1950658,273,102
1950665,321,102
1950672,292,102
1950688,296,102
1950688,326,102
1950711,282,102
1950720,321,102
1950731,305,102
1950739,286,102
1950752,329,102
1950758,283,102
1950772,303,102
1950783,315,102
1950790,283,102
1950790,325,102
1950814,298,102
1950822,303,102
1950834,333,102
1950844,290,102
1950855,334,102
1950865,323,102
1950872,307,102
1950886,352,102
1950896,309,102
1950906,331,102
1950916,337,102
1950926,301,102
1950936,346,102
1950947,316,102
1950956,327,102
1950958,360,102
1950973,319,102
1950988,359,102
1950988,352,102
1951006,335,102
1951019,375,102
1951029,333,102
1951039,359,102
1951040,374,102
1951058,345,102
1951069,390,102
1951073,357,102
1951088,359,102
1951101,378,102
1951111,333,102
1951121,369,102
1951132,354,102
1951139,337,102
1951151,380,102
1951162,337,102
1951173,351,102
1951176,405,106
1951189,598,106
1951204,659,106
1951206,652,106
1951223,254,106
1951234,330,106
1951240,333,106
1951255,366,106
1951265,351,106
1951272,337,106
1951285,380,106
1951295,341,106
1951306,368,106
1951316,379,106
1951326,348,106
1951337,394,106
1951339,364,106
1951355,376,106
1951368,409,106
1951376,371,106
1951376,414,106
1951389,405,106
1951406,389,106
1951415,433,106
1951430,398,106
1951440,433,106
1951449,452,106
1951459,433,106
1951470,491,106
1951481,468,106
1951489,474,106
1951501,497,106
1951512,439,106
1951522,445,106
1951532,395,106
1951539,347,106
1951552,366,106
1951562,310,106
1951572,332,106
1951583,339,106
1951589,304,106
1951604,348,106
1951614,321,106
1951623,325,106
1951635,349,106
1951639,302,106
1951655,338,106
1951666,325,106
1951674,304,106
1951674,348,106
1951688,312,106
1951706,337,106
