Timestamp,ECGValue,BPM
2093518,271,122
2093528,310,122
2093538,296,122
2093549,283,122
2093556,320,122
2093570,286,122
2093576,311,122
2093590,317,122
2093591,280,122
2093608,325,122
2093621,289,122
2093631,292,122
2093639,324,122
2093652,285,122
2093662,333,122
2093673,325,122
2093682,314,122
2093690,356,122
2093690,311,122
2093709,330,122
2093724,330,122
2093735,290,122
2093740,332,122
2093740,299,122
2093758,302,122
2093774,334,122
2093785,296,122
2093790,338,122
2093806,329,122
2093815,312,122
2093823,352,122
2093836,306,122
2093847,329,122
2093857,334,122
2093867,294,122
2093873,337,122
2093888,306,122
2093897,310,122
2093906,342,122
2093909,300,122
2093929,340,122
2093939,328,122
2093940,305,122
2093956,344,122
2093971,298,122
2093980,313,122
2093990,319,122
2093990,284,122
2094009,330,122
2094021,306,122
2094032,317,122
2094040,361,122
2094051,304,122
2094061,339,122
2094073,316,122
2094082,281,122
2094089,313,122
2094104,268,122
2094114,295,122
2094123,311,122
2094134,285,122
2094145,340,122
2094154,309,122
2094166,409,110
2094173,658,110
2094185,658,110
2094195,423,110
2094207,195,110
2094209,258,110
2094223,301,110
2094237,245,110
2094240,262,110
2094257,278,110
2094268,247,110
2094273,300,110
2094287,278,110
2094298,282,110
2094307,320,110
2094313,274,110
2094327,309,110
2094339,300,110
2094350,275,110
2094356,319,110
2094370,285,110
2094381,318,110
2094390,349,110
2094401,326,110
2094411,385,110
2094421,368,110
2094432,374,110
2094440,419,110
2094452,379,110
2094463,417,110
2094473,411,123
2094483,381,123
2094489,404,123
2094504,330,123
2094514,314,123
2094523,301,123
2094535,240,123
2094539,274,123
2094555,245,123
2094557,246,123
2094573,286,123
2094583,250,123
2094596,290,123
2094606,289,123
2094617,273,123
2094623,326,123
2094638,292,123
2094647,313,123
2094657,330,123
2094668,290,123
2094676,328,123
2094689,298,123
2094699,292,123
2094707,324,123
2094710,281,123
2094724,321,123
2094740,320,123
2094740,300,123
2094757,350,123
2094766,315,123
2094773,334,123
2094790,348,123
2094802,302,123
2094812,339,123
2094822,309,123
2094833,301,123
2094842,333,123
2094852,290,123
2094862,330,123
2094873,335,123
2094884,318,123
2094890,360,123
2094904,326,123
2094914,346,123
2094924,363,123
2094934,319,123
2094945,360,123
2094956,340,123
2094966,333,123
2094974,369,123
2094974,326,123
2094997,360,123
2095007,360,123
2095017,336,123
2095024,376,123
2095037,334,123
2095040,357,123
2095056,386,123
2095069,337,123
2095074,377,123
2095090,349,123
2095099,341,123
2095106,377,123
2095120,333,123
2095130,365,123
2095140,363,123
2095151,336,123
2095157,376,123
2095171,331,123
2095181,462,114
2095190,659,114
2095202,659,114
2095212,461,114
2095223,247,114
2095224,334,114
2095240,385,114
2095252,336,114
2095257,363,114
2095273,366,114
2095284,338,114
2095290,386,114
2095305,352,114
2095315,366,114
2095324,389,114
2095335,350,114
2095341,399,114
2095341,383,114
2095366,377,114
2095374,417,114
2095386,372,114
2095397,402,114
2095407,406,114
2095413,381,114
2095428,436,114
2095438,412,114
2095449,433,114
2095457,470,114
2095469,443,114
2095479,492,114
2095489,473,130
2095500,454,130
2095507,465,130
2095511,380,130
2095531,373,130
2095540,343,130
2095550,293,130
2095557,330,130
2095565,292,130
2095573,304,130
2095589,332,130
2095603,291,130
2095613,337,130
2095622,319,130
2095633,304,130
2095640,335,130
2095654,284,130
2095664,311,130
2095673,309,130
2095684,278,130
2095692,330,130
2095705,294,130
2095715,305,130
2095723,333,130
2095736,288,130
2095746,330,130
2095756,317,130
2095766,301,130
2095774,339,130
2095774,295,130
2095791,321,130
2095807,322,130
2095818,286,130
2095823,330,130
2095838,294,130
2095840,302,130
2095856,327,130
2095868,286,130
2095873,331,130
2095889,316,130
2095900,305,130
2095906,349,130
2095920,305,130
2095931,332,130
2095940,337,130
2095940,302,130
2095956,347,130
2095971,317,130
2095982,325,130
2095990,356,130
2096003,317,130
2096012,374,130
2096023,357,130
2096034,328,130
2096040,363,130
2096054,310,130
2096063,328,130
2096073,332,130
2096073,301,130
2096095,351,130
2096105,318,130
2096116,327,130
2096123,346,130
2096136,320,130
2096146,545,121
2096156,659,121
2096167,654,121
2096173,284,121
2096188,242,121
2096198,332,121
2096207,333,121
2096211,296,121
2096225,344,121
2096239,310,121
2096240,310,121
2096256,334,121
2096270,287,121
2096279,324,121
2096290,312,121
2096300,296,121
2096306,346,121
2096321,312,121
2096331,344,121
2096340,356,121
2096351,325,121
2096362,377,121
2096372,353,121
2096382,361,121
2096389,399,121
2096403,362,121
2096414,415,121
2096423,413,121
2096434,403,121
2096440,453,121
2096453,410,129
2096465,420,129
2096474,398,129
2096474,323,129
2096490,336,129
2096505,282,129
2096516,266,129
2096523,291,129
2096536,245,129
2096540,284,129
2096556,275,129
2096568,258,129
2096574,300,129
2096574,257,129
2096598,278,129
2096607,289,129
2096619,251,129
2096624,297,129
2096639,268,129
2096640,266,129
2096657,298,129
2096669,248,129
2096673,286,129
2096690,277,129
2096690,255,129
2096707,300,129
2096721,256,129
2096731,280,129
2096740,292,129
2096740,255,129
2096756,302,129
2096772,273,129
2096773,270,129
2096790,304,129
2096803,258,129
2096813,297,129
2096823,290,129
2096834,267,129
2096840,312,129
2096855,273,129
2096857,294,129
2096874,310,129
2096885,270,129
2096896,315,129
2096906,287,129
2096915,282,129
2096924,317,129
2096924,272,129
2096940,310,129
2096957,305,129
2096967,281,129
2096973,327,129
2096988,285,129
2096990,305,129
2097006,318,129
2097019,278,129
2097023,324,129
2097039,299,129
2097049,295,129
2097056,332,129
2097070,288,129
2097080,323,129
2097089,319,129
2097101,293,129
2097111,337,129
2097121,294,129
2097125,309,129
2097140,323,129
2097153,281,129
2097157,327,129
2097173,302,129
2097183,294,129
2097190,330,129
2097204,285,129
2097212,320,129
2097223,314,129
2097235,288,129
2097245,347,129
2097255,304,129
2097265,312,129
2097276,326,129
2097286,277,129
2097291,315,129
2097291,288,129
2097316,279,129
2097323,316,129
2097337,271,129
2097347,305,129
2097356,293,129
2097366,290,129
2097378,527,114
2097388,658,114
2097398,617,114
2097407,227,114
2097419,216,114
2097424,310,114
2097439,275,114
2097450,265,114
2097456,302,114
2097471,258,114
2097481,291,114
2097490,287,114
2097490,262,114
2097507,311,114
2097516,278,114
2097533,298,114
2097541,330,114
2097552,296,114
2097556,347,114
2097573,332,114
2097584,332,114
2097591,376,114
2097591,338,114
2097613,373,114
2097624,382,114
2097624,362,114
2097638,422,114
2097655,399,114
2097666,418,114
2097676,446,114
2097683,406,120
2097696,438,120
2097707,392,120
2097716,347,120
2097727,354,120
2097733,285,120
2097748,302,120
2097758,299,120
2097767,272,120
2097767,327,120
2097784,299,120
2097799,312,120
2097809,341,120
2097817,297,120
2097830,335,120
2097840,313,120
2097850,298,120
2097850,336,120
2097866,291,120
2097881,318,120
2097883,325,120
2097899,297,120
2097912,346,120
2097922,315,120
2097932,328,120
2097934,356,120
2097950,314,120
2097964,353,120
2097974,329,120
2097983,313,120
2097984,348,120
2098000,298,120
2098014,322,120
2098025,323,120
2098033,290,120
2098045,339,120
2098056,315,120
2098066,326,120
2098076,353,120
2098083,312,120
2098097,355,120
2098108,340,120
2098117,324,120
2098127,367,120
2098134,324,120
2098148,352,120
2098159,358,120
2098167,325,120
2098179,373,120
2098189,337,120
2098199,343,120
2098210,369,120
2098217,325,120
2098230,366,120
2098241,351,120
2098249,337,120
2098261,378,120
2098266,335,120
2098281,367,120
2098283,388,120
2098300,345,120
2098300,388,120
2098317,354,120
2098333,350,120
2098344,379,120
2098351,334,120
2098363,374,120
2098374,360,120
2098384,342,120
2098395,382,120
2098400,331,120
2098415,450,111
2098425,659,111
2098433,659,111
2098446,571,111
2098456,245,111
2098467,334,111
2098477,381,111
2098483,326,111
2098483,363,111
2098507,351,111
2098517,336,111
2098528,380,111
2098533,340,111
2098548,368,111
2098559,379,111
2098567,341,111
2098579,390,111
2098583,365,111
2098600,371,111
2098600,406,111
2098618,361,111
2098626,402,111
2098635,393,111
2098651,379,111
2098652,427,111
2098668,396,111
2098682,432,111
2098693,456,111
2098700,432,111
2098713,489,111
2098717,464,111
2098733,461,111
2098743,471,111
2098750,386,111
2098764,386,111
2098774,344,111
2098783,300,111
2098795,334,111
2098805,290,111
2098815,314,111
2098825,329,111
2098833,298,111
2098846,342,111
2098857,313,111
2098866,307,111
2098877,331,111
2098884,278,111
2098897,309,111
2098899,300,111
2098917,281,111
2098928,328,111
2098939,292,111
2098949,314,111
2098959,331,111
2098967,294,111
2098980,339,111
2098990,311,111
2098999,308,111
2099010,341,111
2099016,293,111
2099031,329,111
2099041,319,111
2099050,292,111
2099062,329,111
2099072,284,111
2099082,298,111
2099092,311,111
2099099,271,111
2099113,321,111
2099123,299,111
2099133,299,111
2099144,336,111
2099150,293,111
2099164,329,111
2099174,323,111
2099183,298,111
2099195,341,111
2099206,300,111
2099215,316,111
2099226,334,111
2099233,292,111
2099247,336,111
2099257,310,111
2099267,304,111
2099267,337,111
2099283,293,111
2099298,328,111
2099308,324,111
2099316,297,111
2099329,343,111
2099339,305,111
2099349,318,111
2099360,344,111
2099367,317,111
2099380,355,111
2099383,322,111
2099400,312,111
2099401,344,111
2099417,298,111
2099431,329,111
2099441,324,111
2099449,298,111
2099462,342,111
2099467,303,111
2099473,305,111
2099484,377,111
2099500,562,112
2099500,659,112
2099524,581,112
2099533,197,112
2099544,310,112
2099550,294,112
2099565,311,112
2099574,306,112
2099583,279,112
2099596,322,112
2099600,284,112
2099616,298,112
2099626,321,112
2099634,280,112
2099647,327,112
2099650,312,112
2099666,307,112
2099678,349,112
2099684,309,112
2099684,345,112
2099701,344,112
2099718,320,112
2099730,370,112
2099734,338,112
2099750,359,112
2099760,394,112
2099767,366,112
2099780,424,112
2099791,413,112
2099800,407,112
2099812,442,112
2099817,379,112
2099822,376,112
2099834,340,112
2099850,277,112
2099863,302,112
2099867,254,112
2099883,262,112
2099894,288,112
2099900,248,112
2099914,291,112
2099924,273,112
2099934,260,112
2099934,298,112
2099950,253,112
2099965,282,112
2099975,284,112
2099984,254,112
2099984,301,112
2099999,265,112
2100016,276,112
2100025,302,112
2100033,257,112
2100047,299,112
2100057,280,112
2100066,266,112
2100078,307,112
2100085,262,112
2100085,293,112
2100101,298,112
2100117,264,112
2100130,310,112
2100133,275,112
2100149,281,112
2100160,307,112
2100167,266,112
2100174,309,112
2100184,294,112
2100200,280,112
2100202,323,112
2100217,280,112
2100231,307,112
2100242,311,112
2100250,276,112
2100263,323,112
2100273,288,112
2100283,295,112
2100283,326,112
2100300,284,112
2100314,328,112
2100325,313,112
2100333,298,112
2100345,340,112
2100356,294,112
2100366,320,112
2100376,329,112
2100384,293,112
2100396,340,112
2100407,306,112
2100416,311,112
2100427,337,112
2100434,292,112
2100448,333,112
2100458,318,112
2100467,300,112
2100467,342,112
2100483,299,112
2100499,324,112
2100509,332,112
2100517,295,112
2100524,339,112
2100540,306,112
2100550,310,112
2100561,336,112
2100567,289,112
2100576,331,112
2100583,332,112
2100599,312,112
2100599,343,112
2100617,297,112
2100633,315,112
2100643,320,112
2100650,282,112
2100663,329,112
2100673,297,112
2100683,299,112
2100695,326,112
2100700,272,112
2100700,327,112
2100716,486,108
2100734,658,108
2100745,654,108
2100750,226,108
2100766,244,108
2100776,318,108
2100783,272,108
2100797,313,108
2100800,282,108
2100817,282,108
2100824,311,108
2100833,265,108
2100848,306,108
2100852,300,108
2100867,284,108
2100867,334,108
2100883,302,108
2100899,328,108
2100910,346,108
2100917,315,108
2100925,370,108
2100940,347,108
2100950,351,108
2100961,392,108
2100967,355,108
2100982,401,108
2100984,402,108
2100999,393,108
2101013,448,108
2101021,412,108
2101032,432,108
2101043,438,108
2101050,376,108
2101064,388,108
2101070,329,108
2101084,300,108
2101095,319,108
2101100,266,108
2101100,307,108
2101117,306,108
2101133,285,108
2101146,339,108
2101150,301,108
2101166,318,108
2101176,330,108
2101183,287,108
2101197,330,108
2101207,300,108
2101217,294,108
2101228,329,108
2101233,287,108
2101248,326,108
2101258,323,108
2101267,305,108
2101279,352,108
2101289,312,108
2101300,333,108
2101310,349,108
2101317,309,108
2101331,346,108
2101334,321,108
2101349,321,108
2101361,353,108
2101366,308,108
2101382,345,108
2101392,343,108
2101401,317,108
2101413,363,108
2101418,328,108
2101433,344,108
2101443,361,108
2101450,322,108
2101464,366,108
2101471,340,108
2101483,335,108
2101483,368,108
2101501,333,108
2101516,359,108
2101525,363,108
2101534,335,108
2101534,377,108
2101551,347,108
2101567,354,108
2101577,377,108
2101583,342,108
2101598,376,108
2101608,365,108
2101618,355,108
2101628,389,108
2101633,356,108
2101648,394,108
2101650,401,109
2101668,368,109
2101680,404,109
2101690,366,109
2101700,368,109
2101700,389,109
2101718,348,109
2101731,381,109
2101741,367,109
2101749,354,109
2101762,378,109
2101772,373,109
2101782,608,109
2101784,660,109
2101800,656,109
2101813,311,109
2101818,292,109
2101833,350,109
2101834,362,109
2101850,320,109
2101864,354,109
2101875,344,109
2101884,334,109
2101895,372,109
2101906,339,109
2101916,360,109
2101926,366,109
2101933,337,109
2101946,379,109
2101957,357,109
2101967,369,109
2101977,399,109
2101983,364,109
2101998,405,108
2102008,397,108
2102018,382,108
2102029,422,108
2102038,391,108
2102049,428,108
2102050,448,108
2102067,431,108
2102079,479,108
2102090,455,108
2102100,444,108
2102111,442,108
2102119,363,108
2102131,360,108
2102141,325,108
2102150,291,108
2102162,320,108
2102172,284,108
2102183,305,108
2102193,321,108
2102200,295,108
2102214,334,108
2102223,305,108
2102233,303,108
2102244,323,108
2102250,280,108
2102250,310,108
2102276,303,108
2102283,288,108
2102296,329,108
2102305,291,108
2102316,314,108
2102327,322,108
2102334,288,108
2102334,329,108
2102358,307,108
2102367,309,108
2102375,337,108
2102382,296,108
2102398,328,108
2102402,316,108
2102417,292,108
2102429,323,108
2102439,282,108
2102450,295,108
2102459,303,108
2102466,272,108
2102480,311,108
2102491,288,108
2102500,290,108
2102511,321,108
2102519,286,108
2102531,316,108
2102542,305,108
2102550,283,108
2102563,320,108
2102567,286,108
2102583,303,108
2102593,316,108
2102601,285,108
2102601,325,108
2102624,302,108
2102633,299,108
2102644,326,108
2102650,286,108
2102665,316,108
2102675,311,108
2102684,289,108
2102696,330,108
2102700,297,108
2102716,314,108
2102724,328,108
2102734,294,108
2102747,336,108
2102758,313,108
2102767,310,108
2102778,348,108
2102783,323,108
2102799,342,108
2102800,336,108
2102819,311,108
2102830,343,108
2102834,306,108
2102850,319,108
2102850,333,108
2102867,297,108
2102880,334,108
2102883,311,108
2102900,305,108
2102911,457,108
2102919,657,108
2102932,659,108
2102943,436,108
2102950,214,108
2102963,336,108
2102973,291,108
2102983,286,108
2102984,299,108
2103001,263,108
2103014,309,108
2103025,297,108
2103034,301,108
2103034,340,108
2103055,304,108
2103065,329,108
2103076,322,108
2103085,291,108
2103085,327,108
2103100,296,108
2103117,314,108
2103125,338,108
2103132,313,108
2103148,360,108
2103150,350,108
2103166,357,108
2103179,401,108
2103183,378,108
2103199,417,108
2103201,420,108
2103219,399,108
2103227,434,108
2103233,381,108
2103249,361,108
2103261,344,108
2103268,281,108
2103280,299,108
2103292,271,108
2103299,260,108
2103312,295,108
2103322,259,108
2103332,290,108
2103342,290,108
2103350,264,108
2103363,299,108
2103374,264,108
2103383,271,108
2103394,290,108
2103400,257,108
2103415,299,108
2103425,288,108
2103433,285,108
2103445,316,108
2103456,275,108
2103465,292,108
2103467,287,108
2103483,254,108
2103497,291,108
2103504,262,108
2103517,275,108
2103527,296,108
2103538,260,108
2103548,295,108
2103558,277,108
2103567,263,108
2103578,289,108
2103583,253,108
2103599,279,108
2103609,281,108
2103619,258,108
2103631,299,108
2103636,271,108
2103649,280,108
2103661,297,108
2103668,258,108
2103668,287,108
2103683,265,108
2103700,254,108
2103712,281,108
2103719,245,108
2103725,272,108
2103743,276,108
2103750,256,108
2103764,295,108
2103774,268,108
2103784,277,108
2103784,295,108
2103800,258,108
2103815,289,108
2103819,273,108
2103834,265,108
2103834,299,108
2103856,265,108
2103866,294,108
2103876,300,108
2103884,281,108
2103884,322,108
2103899,296,108
2103918,308,108
2103927,324,108
2103933,286,108
2103949,327,108
2103951,318,108
2103967,308,108
2103979,336,108
2103983,299,108
2103999,321,108
2104010,318,108
2104020,293,108
2104030,336,108
2104033,308,108
2104050,315,108
2104061,332,108
2104067,286,108
2104075,351,108
2104091,549,105
2104100,659,105
2104100,642,105
2104123,209,105
2104133,279,105
2104133,336,105
2104149,301,105
2104164,330,105
2104174,307,105
2104183,315,105
2104195,333,105
2104200,300,105
2104215,341,105
2104221,330,105
2104234,325,105
2104234,369,105
2104249,339,105
2104266,368,105
2104277,380,105
2104284,356,105
2104298,397,105
2104300,377,105
2104318,388,105
2104328,416,105
2104338,388,105
2104348,433,105
2104360,438,105
2104367,437,105
2104372,477,105
2104390,452,105
2104400,475,105
2104410,473,105
2104420,424,105
2104430,429,105
2104441,368,105
2104449,348,105
2104462,355,105
2104472,310,105
2104482,344,105
2104493,335,105
2104500,323,105
2104514,359,105
2104524,325,105
2104533,343,105
2104544,348,105
2104550,322,105
2104564,367,105
2104575,340,105
2104584,350,105
2104584,378,105
2104605,337,105
2104616,374,105
2104626,359,105
2104634,345,105
2104634,385,105
2104657,345,105
2104666,370,105
2104677,377,105
2104683,340,105
2104683,377,105
2104708,346,105
2104717,347,105
2104729,368,105
2104734,331,105
2104750,369,105
2104759,356,105
2104766,341,105
2104779,380,105
2104784,339,105
2104800,365,105
2104800,370,105
2104821,334,105
2104832,376,105
2104833,343,105
2104850,343,105
2104850,369,105
2104868,327,105
2104882,379,105
2104893,372,105
2104900,351,105
2104913,392,105
2104924,338,105
2104933,351,105
2104945,356,105
2104950,321,105
2104965,364,105
2104974,332,105
2104983,338,105
2104995,360,105
2105006,311,105
2105015,460,108
2105027,659,108
2105033,659,108
2105046,470,108
2105050,212,108
2105066,329,108
2105077,344,108
2105083,303,108
2105098,348,108
2105101,321,108
2105117,322,108
2105127,350,108
2105133,308,108
2105149,344,108
2105160,330,108
2105167,313,108
2105180,359,108
2105191,324,108
2105200,352,108
2105211,369,108
2105221,342,108
2105231,395,108
2105234,372,108
2105251,380,108
2105251,417,108
2105267,377,108
2105282,425,108
2105293,427,108
2105300,422,108
2105314,472,108
2105324,431,108
2105334,446,108
2105344,432,108
2105355,357,108
2105365,366,108
2105371,308,108
2105383,287,108
2105396,311,108
2105406,267,108
2105416,305,108
2105426,299,108
2105433,281,108
2105447,325,108
2105458,285,108
2105466,304,108
2105479,313,108
2105483,271,108
2105499,313,108
2105509,287,108
2105517,284,108
2105521,316,108
2105533,272,108
2105549,305,108
2105559,295,108
2105567,269,108
2105575,315,108
2105591,276,108
2105599,294,108
2105611,310,108
2105622,276,108
2105632,319,108
2105634,292,108
2105650,286,108
2105662,314,108
2105670,261,108
2105683,292,108
2105694,282,108
2105700,256,108
2105714,303,108
2105724,269,108
2105733,292,108
2105745,310,108
2105750,275,108
2105766,319,108
2105776,292,108
2105783,286,108
2105797,318,108
2105806,271,108
2105816,306,108
2105822,303,108
2105833,278,108
2105848,325,108
2105858,288,108
2105867,304,108
2105878,320,108
2105889,281,108
2105899,324,108
2105909,297,108
2105916,288,108
2105930,322,108
2105941,279,108
2105949,316,108
2105960,315,108
2105968,290,108
2105981,338,108
2105992,303,108
2106000,319,108
2106012,338,108
2106022,295,108
2106032,335,108
2106042,309,108
2106049,299,108
2106063,333,108
2106068,287,108
2106084,325,108
2106094,332,108
2106100,308,108
2106115,351,108
2106122,313,108
2106134,323,108
2106146,337,108
2106150,292,108
2106166,335,108
2106176,310,108
2106183,298,108
2106196,336,108
2106207,287,108
2106217,320,108
2106228,458,108
2106233,657,108
2106248,658,108
2106258,334,108
2106267,235,108
2106273,335,108
2106283,283,108
2106299,316,108
2106310,295,108
2106317,284,108
2106330,323,108
2106334,279,108
2106350,313,108
2106360,318,108
2106367,290,108
2106381,339,108
2106391,310,108
2106400,322,108
2106412,350,108
2106422,313,108
2106433,359,108
2106443,344,108
2106450,337,108
2106463,381,108
2106473,345,108
2106483,385,108
2106483,401,108
2106500,381,108
2106500,437,108
2106526,408,108
2106533,417,108
2106546,436,108
2106556,378,108
2106566,392,108
2106577,346,108
2106583,309,108
2106597,332,108
2106607,280,108
2106616,305,108
2106627,309,108
2106638,276,108
2106648,323,108
2106658,288,108
2106668,294,108
2106680,318,108
2106689,273,108
2106700,312,108
2106709,295,108
2106717,277,108
2106730,316,108
2106741,276,108
2106749,303,108
2106761,308,108
2106767,275,108
2106782,320,108
2106792,283,108
2106800,288,108
2106813,312,108
2106823,266,108
2106832,306,108
2106843,290,108
2106851,275,108
2106851,318,108
2106874,280,108
2106883,311,108
2106895,321,108
2106900,289,108
2106916,335,108
2106925,302,108
2106933,306,108
2106946,331,108
2106956,281,108
2106966,319,108
2106977,303,108
2106983,285,108
2106997,329,108
2107008,291,108
2107017,317,108
2107028,328,108
2107038,293,108
2107049,339,108
2107059,304,108
2107066,302,108
2107080,327,108
2107090,280,108
2107100,317,108
2107111,304,108
2107117,285,108
2107124,330,108
2107141,289,108
2107150,313,108
2107150,325,108
2107167,292,108
2107182,337,108
2107193,301,108
2107199,298,108
2107213,325,108
2107223,279,108
2107233,317,108
2107244,303,108
2107250,282,108
2107264,327,108
2107275,285,108
2107283,307,108
2107295,321,108
2107300,283,108
2107300,334,108
2107323,315,108
2107333,316,108
2107346,341,108
2107351,293,108
2107367,324,108
2107377,309,108
2107384,285,108
2107398,327,108
2107408,285,108
2107416,306,108
2107428,321,108
2107439,279,108
2107450,323,108
2107459,422,103
2107466,657,103
2107480,658,103
2107491,337,103
2107500,236,103
2107511,312,103
2107519,291,103
2107523,322,103
2107542,279,103
2107550,301,103
2107562,318,103
2107567,276,103
2107583,325,103
2107593,305,103
2107600,307,103
2107613,349,103
2107623,310,103
2107633,356,103
2107644,357,103
2107650,338,103
2107665,388,103
2107671,350,103
2107684,369,103
2107696,386,103
2107706,352,103
2107715,406,103
2107724,395,103
2107733,410,103
2107733,458,103
2107757,423,103
2107767,468,104
2107775,461,104
2107783,422,104
2107798,442,104
2107799,371,104
2107817,360,104
2107829,358,104
2107839,311,104
2107850,357,104
2107860,334,104
2107869,333,104
2107880,369,104
2107884,322,104
2107900,354,104
2107911,350,104
2107917,325,104
2107932,370,104
2107934,332,104
2107950,349,104
2107950,373,104
2107972,335,104
2107982,382,104
2107993,359,104
2108000,353,104
2108014,389,104
2108024,345,104
2108034,380,104
2108044,374,104
2108050,348,104
2108065,391,104
2108075,348,104
2108084,357,104
2108084,372,104
2108106,326,104
2108116,369,104
2108126,345,104
2108133,339,104
2108147,377,104
2108157,336,104
2108167,372,104
2108177,378,104
2108183,355,104
2108199,400,104
2108208,360,104
2108219,370,104
2108229,385,104
2108240,338,104
2108250,378,104
2108260,351,104
2108267,340,104
2108281,374,104
2108291,327,104
2108300,358,104
2108312,357,104
2108317,325,104
2108332,373,104
2108342,339,104
2108350,351,104
2108362,375,104
2108367,345,104
2108383,396,104
2108394,369,104
2108400,354,104
2108414,382,104
2108424,323,104
2108433,347,104
2108445,344,104
2108455,306,104
2108465,350,104
2108475,315,104
2108483,327,104
2108496,342,104
2108507,395,104
2108517,658,107
2108524,659,107
2108533,457,107
2108548,235,107
2108557,276,107
2108567,319,107
2108578,312,107
2108584,280,107
2108584,332,107
2108600,296,107
2108617,306,107
2108630,333,107
2108640,289,107
2108650,329,107
2108651,311,107
2108667,300,107
2108681,348,107
2108691,308,107
2108700,345,107
2108712,357,107
2108722,326,107
2108724,378,107
2108743,347,107
2108750,358,107
2108763,393,107
2108774,357,107
2108783,410,107
2108793,406,107
2108800,399,107
2108800,442,107
2108825,390,107
2108834,397,107
2108834,368,107
2108856,298,107
2108866,317,107
2108876,265,107
2108883,266,107
2108897,294,107
2108907,256,107
2108917,304,107
2108924,291,107
2108933,273,107
2108947,310,107
2108950,259,107
2108966,281,107
2108977,283,107
2108983,247,107
2108999,296,107
2109009,267,107
2109017,277,107
2109030,310,107
2109040,265,107
2109050,303,107
2109060,284,107
2109070,264,107
2109081,308,107
2109091,266,107
2109101,293,107
2109112,306,107
2109117,272,107
2109133,319,107
2109144,285,107
2109150,285,107
2109164,311,107
2109170,263,107
2109183,302,107
2109194,290,107
2109199,274,107
2109215,326,107
2109225,287,107
2109234,316,107
2109245,327,107
2109250,287,107
2109265,331,107
2109276,294,107
2109283,290,107
2109297,321,107
2109307,279,107
2109317,321,107
2109327,312,107
2109333,295,107
2109333,340,107
2109350,296,107
2109367,317,107
2109377,327,107
2109389,288,107
2109399,334,107
2109410,305,107
2109417,305,107
2109430,338,107
2109440,292,107
2109449,330,107
2109461,321,107
2109467,298,107
2109472,341,107
2109492,301,107
2109501,323,107
2109501,335,107
2109523,300,107
2109533,358,107
2109543,332,107
2109550,327,107
2109564,358,107
2109574,305,107
2109584,336,107
2109595,325,107
2109605,300,107
2109616,344,107
2109625,300,107
2109633,319,107
2109646,332,107
2109657,285,107
2109666,434,93
2109677,654,93
2109683,658,93
2109683,458,93
2109701,204,93
2109716,334,93
2109727,329,93
2109733,291,93
2109749,336,93
2109749,293,93
2109766,310,93
2109779,327,93
2109790,286,93
2109800,336,93
2109810,315,93
2109816,312,93
2109831,352,93
2109841,318,93
2109851,349,93
2109851,353,93
2109867,328,93
2109882,369,93
2109887,341,93
2109900,354,93
2109912,383,93
2109916,356,93
2109933,408,93
2109944,405,93
2109951,405,93
2109951,443,93
2109974,406,102
2109983,424,102
2109995,412,102
2110005,359,102
2110015,368,102
2110026,311,102
2110033,302,102
2110047,312,102
2110057,272,102
2110067,309,102
2110070,295,102
2110083,284,102
2110097,317,102
2110109,277,102
2110117,300,102
2110125,301,102
2110133,271,102
2110149,311,102
2110150,280,102
2110167,288,102
2110175,310,102
2110183,275,102
2110200,313,102
2110211,298,102
2110217,285,102
2110231,322,102
2110242,285,102
2110250,311,102
2110261,319,102
2110272,289,102
2110282,329,102
2110293,298,102
2110300,301,102
2110313,324,102
2110323,283,102
2110333,321,102
2110344,307,102
2110349,294,102
2110364,331,102
2110375,298,102
2110383,321,102
2110396,328,102
2110405,296,102
2110416,334,102
2110426,306,102
2110433,308,102
2110446,331,102
2110457,292,102
2110467,328,102
2110467,316,102
2110484,303,102
2110498,341,102
2110508,305,102
2110517,328,102
2110528,336,102
2110539,307,102
2110549,348,102
2110560,321,102
2110566,324,102
2110580,349,102
2110590,311,102
2110600,345,102
2110611,337,102
2110619,321,102
2110632,359,102
2110642,320,102
2110652,340,102
2110662,348,102
2110673,314,102
2110682,354,102
2110694,327,102
2110700,327,102
2110713,356,102
2110723,316,102
2110733,346,102
2110744,345,102
2110755,333,102
2110765,371,102
2110768,329,102
2110785,344,102
2110795,346,102
2110801,308,102
2110817,346,102
2110827,320,102
2110833,319,102
2110847,347,102
2110849,308,102
2110866,332,102
2110877,325,102
2110888,439,92
2110898,658,92
2110909,657,92
2110917,318,92
2110929,243,92
2110939,289,92
2110950,320,92
2110960,290,92
2110969,286,92
2110981,315,92
2110990,272,92
2110999,302,92
2111011,293,92
2111017,272,92
2111027,313,92
2111042,283,92
2111050,307,92
2111063,327,92
2111074,300,92
2111083,344,92
2111093,326,92
2111100,325,92
2111113,355,92
2111121,318,92
2111133,353,92
2111133,356,92
2111151,344,92
2111165,396,92
2111170,373,92
2111183,393,92
2111196,408,97
2111206,369,97
2111217,391,97
2111227,340,97
2111234,306,97
2111234,313,97
2111258,258,97
2111267,280,97
2111278,278,97
2111284,259,97
2111284,302,97
2111309,272,97
2111316,284,97
2111330,300,97
2111340,265,97
2111349,302,97
2111361,281,97
2111366,277,97
2111381,310,97
2111391,272,97
2111399,304,97
2111412,305,97
2111421,283,97
2111432,324,97
2111443,293,97
2111451,306,97
2111451,325,97
2111467,291,97
2111483,332,97
2111494,316,97
2111500,307,97
2111514,338,97
2111525,295,97
2111533,322,97
2111533,320,97
2111549,293,97
2111566,332,97
2111576,299,97
2111583,305,97
2111596,326,97
2111607,291,97
2111617,331,97
2111627,319,97
2111634,315,97
2111648,354,97
2111658,320,97
2111668,351,97
2111679,352,97
2111683,325,97
2111699,366,97
2111700,337,97
2111717,347,97
2111728,363,97
2111733,324,97
2111750,359,97
2111750,342,97
2111767,335,97
2111776,371,97
2111784,336,97
2111800,365,97
2111812,369,97
2111817,353,97
2111833,403,92
2111833,371,92
2111850,378,92
2111863,395,92
2111874,349,92
2111883,380,92
2111894,366,92
2111900,354,92
2111915,388,92
2111925,350,92
2111933,373,92
2111946,364,92
2111950,386,92
2111965,655,92
2111976,659,92
2111983,622,92
2111983,273,92
2112007,304,92
2112017,379,92
2112028,357,92
2112034,340,92
2112049,375,92
2112050,337,92
2112067,361,92
2112076,365,92
2112089,339,92
2112100,379,92
2112110,349,92
2112117,359,92
2112130,390,92
2112133,360,92
2112150,402,101
2112150,396,101
2112167,387,101
2112181,426,101
2112183,390,101
2112200,416,101
2112213,425,101
2112222,406,101
2112233,457,101
2112234,438,101
2112250,452,101
2112264,480,101
2112267,439,101
2112284,457,101
2112284,411,101
2112300,359,101
2112315,366,101
2112325,304,101
2112333,312,101
2112346,318,101
2112350,291,101
2112366,334,101
2112376,310,101
2112383,311,101
2112397,334,101
2112407,286,101
2112416,313,101
2112428,297,101
2112433,276,101
2112449,313,101
2112459,280,101
2112467,304,101
2112479,316,101
2112490,282,101
2112500,321,101
2112510,294,101
2112516,292,101
2112531,318,101
2112541,280,101
2112550,314,101
2112562,308,101
2112569,287,101
2112569,322,101
2112593,283,101
2112601,294,101
2112601,301,101
2112623,263,101
2112633,304,101
2112643,281,101
2112651,284,101
2112664,318,101
2112674,282,101
2112684,314,101
2112695,306,101
2112700,282,101
2112700,316,101
2112726,276,101
2112733,291,101
2112746,302,101
2112751,269,101
2112767,312,101
2112777,292,101
2112784,292,101
2112798,323,101
2112808,284,101
2112817,313,101
2112828,306,101
2112839,284,101
2112848,324,101
2112860,289,101
2112866,306,101
2112880,323,101
2112890,290,101
2112900,332,101
2112900,307,101
2112917,305,101
2112929,333,101
2112933,292,101
2112950,332,101
2112950,338,101
2112966,315,101
2112982,356,101
2112993,319,101
2113000,324,101
2113013,336,101
2113023,296,101
2113034,334,101
2113044,310,101
2113050,303,101
2113050,337,101
2113075,289,101
2113083,349,101
2113096,546,91
2113106,658,91
2113116,638,91
2113123,219,91
2113132,275,91
2113132,338,91
2113148,290,91
2113164,327,91
2113176,308,91
2113176,299,91
2113193,329,91
2113193,289,91
2113218,316,91
2113226,315,91
2113238,294,91
2113249,340,91
2113260,316,91
2113266,338,91
2113276,361,91
2113291,331,91
2113301,374,91
2113310,358,91
2113320,352,91
2113331,391,91
2113342,356,91
2113353,389,91
2113360,401,91
2113364,387,91
2113376,438,91
2113393,408,91
2113403,415,101
2113410,423,101
2113418,361,101
2113429,366,101
2113444,319,101
2113455,287,101
2113460,309,101
2113475,264,101
2113485,289,101
2113493,291,101
2113507,263,101
2113516,305,101
2113526,275,101
2113537,286,101
2113543,311,101
2113557,279,101
2113568,322,101
2113578,311,101
2113578,300,101
2113594,334,101
2113594,292,101
2113619,313,101
2113626,310,101
2113639,278,101
2113643,318,101
2113659,289,101
2113670,301,101
2113676,330,101
2113691,296,101
2113701,336,101
2113710,321,101
2113722,303,101
2113732,331,101
2113742,285,101
2113744,302,101
2113760,304,101
2113774,277,101
2113777,324,101
2113793,303,101
2113804,315,101
2113810,345,101
2113824,309,101
2113834,344,101
2113843,325,101
2113855,304,101
2113864,334,101
2113875,292,101
2113885,315,101
2113893,325,101
2113906,297,101
2113916,341,101
2113926,314,101
2113930,318,101
2113944,344,101
2113944,305,101
2113968,341,101
2113976,329,101
2113988,314,101
2113999,354,101
2114008,316,101
2114019,339,101
2114027,349,101
2114040,317,101
2114050,355,101
2114060,328,101
2114070,329,101
2114076,355,101
2114091,316,101
2114101,351,101
2114110,342,101
2114110,324,101
2114132,362,101
2114143,321,101
2114153,339,101
2114160,359,101
2114173,330,101
2114177,371,101
2114193,342,101
2114204,336,101
2114210,357,101
2114219,315,101
2114235,346,101
2114243,335,101
2114243,315,101
2114266,354,101
2114276,319,101
2114277,327,101
2114293,407,92
2114307,608,92
2114310,659,92
2114327,540,92
2114338,214,92
2114348,327,92
2114358,304,92
2114368,321,92
2114377,314,92
2114377,297,92
2114393,336,92
2114409,301,92
2114420,321,92
2114427,337,92
2114430,304,92
2114444,347,92
2114460,323,92
2114470,325,92
2114477,357,92
2114477,321,92
2114501,359,92
2114511,354,92
2114522,335,92
2114530,379,92
2114543,348,92
2114544,374,92
2114560,399,92
2114565,375,92
2114584,423,92
2114594,404,98
2114604,402,98
2114610,428,98
2114625,376,98
2114635,386,98
2114644,354,98
2114655,307,98
2114663,327,98
2114676,280,98
2114687,287,98
2114693,301,98
2114693,264,98
2114709,301,98
2114727,274,98
2114737,269,98
2114743,297,98
2114758,254,98
2114767,285,98
2114777,283,98
2114777,262,98
2114799,300,98
2114809,268,98
2114820,280,98
2114828,295,98
2114831,258,98
2114851,297,98
2114859,276,98
2114871,270,98
2114882,303,98
2114892,262,98
2114903,289,98
2114909,285,98
2114923,259,98
2114933,297,98
2114943,260,98
2114953,271,98
2114963,291,98
2114973,257,98
2114984,298,98
2114993,280,98
2115005,273,98
2115015,306,98
2115025,266,98
2115035,295,98
2115043,293,98
2115056,269,98
2115067,311,98
2115077,277,98
2115086,293,98
2115093,314,98
2115107,279,98
2115118,318,98
2115127,300,98
2115139,291,98
2115148,324,98
2115159,284,98
2115169,309,98
2115176,309,98
2115176,282,98
2115200,325,98
2115210,298,98
2115221,309,98
2115227,333,98
2115231,300,98
2115252,341,98
2115259,323,98
2115272,314,98
2115282,360,98
2115292,324,98
2115303,346,98
2115310,346,98
2115322,315,98
2115333,350,98
2115343,318,98
2115344,327,98
2115361,347,98
2115371,309,98
2115385,346,98
2115393,324,98
2115393,299,98
2115409,413,104
2115425,633,104
2115437,659,104
2115442,467,104
2115456,183,104
2115467,329,104
2115476,318,104
2115487,319,104
2115492,341,104
2115508,307,104
2115514,345,104
2115527,332,104
2115531,323,104
2115549,363,104
2115559,331,104
2115569,360,104
2115577,371,104
2115589,354,104
2115600,403,104
2115610,376,104
2115620,385,104
2115627,412,104
2115631,374,104
2115644,414,104
2115660,408,104
2115672,403,104
2115677,452,104
2115692,430,104
2115702,466,104
2115711,484,104
2115719,458,104
2115734,495,104
2115743,455,104
2115743,431,104
2115759,423,104
2115775,355,104
2115785,370,104
2115793,343,104
2115806,323,104
2115810,360,104
2115826,321,104
2115836,344,104
2115844,354,104
2115856,324,104
2115867,362,104
2115877,332,104
2115888,328,104
2115894,350,104
2115908,310,104
2115912,346,104
2115927,340,104
2115939,328,104
2115943,364,104
2115959,330,104
2115963,349,104
2115977,358,104
2115977,327,104
2116001,368,104
2116010,340,104
2116018,338,104
2116027,362,104
2116041,319,104
2116043,343,104
2116060,329,104
2116073,305,104
2116082,339,104
2116093,304,104
2116103,324,104
2116109,338,104
2116124,310,104
2116133,354,104
2116143,327,104
2116155,324,104
2116162,347,104
2116175,306,104
2116186,334,104
2116193,322,104
2116206,302,104
2116210,352,104
2116226,324,104
2116237,341,104
2116242,353,104
2116242,311,104
2116258,339,104
2116278,310,104
2116285,305,104
2116298,333,104
2116301,294,104
2116318,329,104
2116329,321,104
2116334,292,104
2116350,400,104
2116360,610,109
2116368,659,109
2116381,501,109
2116385,173,109
2116401,311,109
2116411,311,109
2116421,303,109
2116430,332,109
2116435,293,109
2116452,327,109
2116463,316,109
2116468,295,109
2116473,334,109
2116493,300,109
2116502,315,109
2116502,337,109
2116519,312,109
2116535,359,109
2116545,345,109
2116552,346,109
2116564,379,109
2116575,340,109
2116584,370,109
2116596,370,109
2116602,355,109
2116602,405,109
2116626,385,109
2116635,413,109
2116635,437,109
2116651,406,109
2116667,439,109
2116678,396,109
2116685,356,109
2116699,349,109
2116702,283,109
2116718,295,109
2116729,285,109
2116735,262,109
2116750,309,109
2116751,278,109
2116769,294,109
2116780,310,109
2116791,272,109
2116802,307,109
2116812,283,109
2116820,274,109
2116833,306,109
2116835,270,109
2116852,303,109
2116862,306,109
2116868,283,109
2116883,323,109
2116894,288,109
2116901,298,109
2116914,315,109
2116924,277,109
2116934,317,109
2116945,303,109
2116952,301,109
2116965,336,109
2116970,296,109
2116985,321,109
2116996,318,109
2117002,286,109
2117017,322,109
2117027,285,109
2117036,297,109
2117047,321,109
2117058,290,109
2117068,334,109
2117079,321,109
2117084,314,109
2117098,344,109
2117109,305,109
2117118,327,109
2117120,323,109
2117134,294,109
2117150,333,109
2117153,301,109
2117168,314,109
2117176,334,109
2117185,297,109
2117202,344,109
2117212,334,109
2117218,323,109
2117218,353,109
2117243,309,109
2117252,322,109
2117264,320,109
2117268,288,109
2117284,329,109
2117294,301,109
2117302,308,109
2117302,332,109
2117325,291,109
2117334,343,109
2117335,497,109
2117351,658,109
2117366,656,109
2117376,247,109
2117385,254,109
2117396,320,109
2117407,280,109
2117417,315,109
2117428,288,109
2117435,294,109
2117448,319,109
2117458,281,109
2117468,318,109
2117479,305,109
2117485,294,109
2117499,333,109
2117502,301,109
2117518,333,109
2117530,343,109
2117541,317,109
2117551,362,109
2117562,338,109
2117568,346,109
2117581,375,109
2117585,345,109
2117601,391,109
2117612,391,109
2117619,388,109
2117619,435,109
2117643,401,109
2117652,422,109
2117664,420,109
2117668,363,109
2117684,371,109
2117685,315,109
2117702,295,109
2117715,305,109
2117725,260,109
2117735,295,109
2117735,286,109
2117751,274,109
2117766,312,109
2117768,275,109
2117785,296,109
2117797,302,109
2117807,269,109
2117818,309,109
2117823,280,109
2117835,281,109
2117848,308,109
2117852,269,109
2117868,304,109
2117879,293,109
2117886,275,109
2117900,312,109
2117910,275,109
2117918,296,109
2117930,306,109
2117941,276,109
2117951,316,109
2117961,290,109
2117971,289,109
2117971,314,109
2117984,274,109
2118002,307,109
2118013,299,109
2118019,280,109
2118034,323,109
2118036,287,109
2118051,306,109
2118064,316,109
2118074,282,109
2118084,320,109
2118094,292,109
2118101,289,109
2118116,315,109
2118119,275,109
2118135,309,109
2118146,302,109
2118152,284,109
2118167,322,109
2118176,285,109
2118184,304,109
2118184,315,109
2118202,279,109
2118218,318,109
2118226,290,109
2118235,288,109
2118249,320,109
2118253,278,109
2118268,313,109
2118279,310,109
2118290,291,109
2118300,329,109
2118311,295,109
2118318,322,109
2118331,340,109
2118342,301,109
2118351,337,109
2118362,309,109
2118371,298,109
2118382,328,109
2118393,288,109
2118401,321,109
2118413,315,109
2118418,293,109
2118434,333,109
2118444,284,109
2118451,353,109
2118465,601,111
2118475,658,111
2118484,544,111
2118495,193,111
2118501,273,111
2118515,330,111
2118527,281,111
2118536,311,111
2118536,313,111
2118552,291,111
2118567,334,111
2118577,300,111
2118586,316,111
2118597,333,111
2118608,299,111
2118618,341,111
2118628,326,111
2118636,323,111
2118636,362,111
2118659,330,111
2118669,366,111
2118680,373,111
2118690,354,111
2118701,402,111
2118710,379,111
2118718,401,111
2118731,429,111
2118742,405,111
2118752,452,111
2118762,437,111
2118771,426,111
2118783,442,111
2118793,377,111
2118801,370,111
2118813,337,111
2118824,291,111
2118834,320,111
2118844,286,111
2118851,299,111
2118864,326,111
2118874,291,111
2118884,332,111
2118896,310,111
2118902,298,111
2118902,331,111
2118926,288,111
2118936,316,111
2118936,317,111
2118952,293,111
2118967,335,111
2118978,305,111
2118985,318,111
2118998,340,111
2119008,303,111
2119018,343,111
2119025,327,111
2119037,313,111
2119049,346,111
2119052,311,111
2119068,345,111
2119080,347,111
2119085,313,111
2119100,355,111
2119101,322,111
2119119,329,111
2119132,348,111
2119137,313,111
2119152,350,111
2119163,337,111
2119168,329,111
2119182,366,111
2119185,331,111
2119202,354,111
2119202,356,111
2119224,329,111
2119234,369,111
2119237,338,111
2119252,345,111
2119262,367,111
2119275,333,111
2119285,367,111
2119296,360,111
2119302,359,111
2119302,399,111
2119327,356,111
2119337,378,111
2119337,371,111
2119352,339,111
2119368,375,111
2119378,344,111
2119384,348,111
2119398,371,111
2119409,333,111
2119419,362,111
2119423,352,111
2119437,483,116
2119450,659,116
2119460,659,116
2119468,387,116
2119477,267,116
2119491,320,116
2119501,360,116
2119512,326,116
2119518,330,116
2119532,354,116
2119537,318,116
2119552,354,116
2119562,345,116
2119569,333,116
2119583,369,116
2119585,333,116
2119603,359,116
2119612,372,116
2119618,347,116
2119634,389,116
2119645,363,116
2119652,366,116
2119665,395,116
2119675,362,116
2119684,405,116
2119696,407,116
2119707,405,116
2119717,455,116
2119726,431,116
2119737,462,116
2119747,470,116
2119758,427,116
2119768,438,116
2119778,371,116
2119786,342,116
2119786,341,116
2119803,288,116
2119818,316,116
2119830,306,116
2119837,293,116
2119837,336,116
2119852,303,116
2119869,325,116
2119882,331,116
2119885,293,116
2119901,330,116
2119912,297,116
2119918,296,116
2119931,324,116
2119942,285,116
2119951,318,116
2119962,310,116
2119969,291,116
2119974,326,116
2119994,289,116
2120001,311,116
2120014,323,116
2120024,292,116
2120035,334,116
2120045,308,116
2120052,305,116
2120052,330,116
2120069,284,116
2120086,311,116
2120097,298,116
2120107,277,116
2120117,315,116
2120127,281,116
2120135,302,116
2120138,319,116
2120158,290,116
2120168,335,116
2120179,311,116
2120185,306,116
2120200,332,116
2120209,286,116
2120218,314,116
2120230,306,116
2120238,284,116
2120251,326,116
2120261,292,116
2120270,311,116
2120270,325,116
2120291,291,116
2120302,331,116
2120302,306,116
2120318,303,116
2120328,332,116
2120343,290,116
2120353,321,116
2120363,318,116
2120368,296,116
2120384,333,116
2120386,297,116
2120401,326,116
2120415,345,116
2120425,308,116
2120434,344,116
2120445,321,116
2120451,311,116
2120465,339,116
2120476,302,116
2120484,332,116
2120497,329,116
2120507,304,116
2120518,344,116
2120528,296,116
2120534,368,116
2120549,614,116
2120552,658,116
2120569,566,116
2120578,212,116
2120585,284,116
2120599,341,116
2120602,289,116
2120618,317,116
2120631,316,116
2120639,293,116
2120651,334,116
2120661,300,116
2120669,314,116
2120681,333,116
2120692,298,116
2120701,341,116
2120713,325,116
2120719,320,116
2120723,359,116
2120743,324,116
2120752,354,116
2120752,357,116
2120774,339,116
2120785,388,116
2120794,365,116
2120802,388,116
2120814,418,116
2120825,392,116
2120835,436,116
2120847,420,116
2120851,405,116
2120867,422,116
2120876,352,116
2120884,348,116
2120897,322,116
2120901,274,116
2120917,304,116
2120928,268,116
2120934,277,116
2120949,297,116
2120956,262,116
2120968,300,116
2120979,281,116
2120990,269,116
2120999,304,116
2121002,264,116
2121018,289,116
2121031,290,116
2121041,263,116
2121052,303,116
2121062,272,116
2121068,283,116
2121083,303,116
2121092,265,116
2121102,304,116
2121113,288,116
2121123,277,116
2121133,314,116
2121144,275,116
2121151,300,116
2121164,304,116
2121175,273,116
2121185,313,116
2121194,281,116
2121201,290,116
2121215,313,116
2121218,278,116
2121234,319,116
2121239,304,116
2121253,294,116
2121267,329,116
2121269,290,116
2121286,313,116
2121298,315,116
2121302,285,116
2121318,325,116
2121328,297,116
2121335,308,116
2121349,336,116
2121360,303,116
2121368,339,116
2121380,325,116
2121385,310,116
2121400,345,116
2121411,305,116
2121418,327,116
2121418,333,116
2121439,302,116
2121451,344,116
2121462,314,116
2121469,322,116
2121482,346,116
2121493,306,116
2121502,342,116
2121502,330,116
2121519,312,116
2121528,350,116
2121544,313,116
2121552,337,116
2121552,343,116
2121575,314,116
2121584,357,116
2121595,328,116
2121601,332,116
2121616,354,116
2121626,312,116
2121635,353,116
2121647,347,116
2121652,331,116
2121667,364,116
2121678,324,116
2121684,338,116
2121698,343,116
2121708,307,116
2121718,348,116
2121729,316,116
2121735,319,116
2121750,344,116
2121760,289,116
2121768,340,116
2121780,505,110
2121790,658,110
2121801,655,110
2121811,243,110
2121819,261,110
2121819,326,110
2121840,275,110
2121852,308,110
2121862,275,110
2121868,273,110
2121883,299,110
2121885,262,110
2121902,298,110
2121913,292,110
2121918,280,110
2121935,323,110
2121944,293,110
2121951,322,110
2121965,334,110
2121974,303,110
2121984,346,110
2121984,319,110
2122005,323,110
2122016,355,110
2122022,327,110
2122035,374,110
2122047,381,110
2122053,378,110
2122068,425,110
2122077,392,110
2122084,409,110
2122098,409,110
2122102,349,110
2122118,354,110
2122120,298,110
2122135,276,110
2122140,294,110
2122160,254,110
2122168,293,110
2122180,294,110
2122186,280,110
2122201,319,110
2122211,279,110
2122218,293,110
2122231,304,110
2122240,265,110
2122252,302,110
2122263,277,110
2122268,280,110
2122268,311,110
2122293,272,110
2122301,306,110
2122301,305,110
2122319,286,110
2122334,325,110
2122345,293,110
2122351,310,110
2122365,323,110
2122375,289,110
2122385,331,110
2122396,306,110
2122406,297,110
2122417,325,110
2122426,284,110
2122435,314,110
2122441,308,110
2122458,288,110
2122468,327,110
2122469,296,110
2122485,313,110
2122499,331,110
2122509,297,110
2122518,340,110
2122529,319,110
2122540,316,110
2122550,347,110
2122561,308,110
2122568,340,110
2122581,336,110
2122591,311,110
2122601,353,110
2122612,317,110
2122620,328,110
2122632,346,110
2122642,308,110
2122652,345,110
2122663,328,110
2122668,325,110
2122683,359,110
2122694,326,110
2122701,354,110
2122714,356,110
2122724,331,110
2122735,374,110
2122744,341,110
2122751,352,110
2122765,370,110
2122769,334,110
2122786,379,110
2122796,363,110
2122807,355,110
2122817,387,110
2122827,341,110
2122836,365,110
2122844,358,110
2122849,337,110
2122868,376,110
2122876,346,110
2122889,360,110
2122889,369,110
2122906,329,110
2122919,506,107
2122930,659,107
2122939,659,107
2122951,420,107
2122961,236,107
2122972,350,107
2122976,352,107
2122990,318,107
2123002,357,107
2123012,325,107
2123022,337,107
2123033,358,107
2123041,324,107
2123053,366,107
2123063,353,107
2123072,345,107
2123084,384,107
2123093,349,107
2123105,381,107
2123115,389,107
2123122,366,107
2123135,407,107
2123145,379,107
2123155,394,107
2123166,424,107
2123174,398,107
2123187,449,107
2123197,445,107
2123205,446,107
2123217,487,107
2123228,448,107
2123238,465,107
2123249,444,107
2123255,385,107
2123269,393,107
2123275,336,107
2123288,324,107
2123299,335,107
2123305,292,107
2123319,329,107
2123330,312,107
2123338,298,107
2123350,329,107
2123357,290,107
2123371,312,107
2123381,319,107
2123388,295,107
2123402,338,107
2123413,309,107
2123422,322,107
2123432,343,107
2123441,305,107
2123453,341,107
2123455,322,107
2123472,313,107
2123485,349,107
2123495,318,107
2123504,346,107
2123515,352,107
2123521,325,107
2123536,357,107
2123546,320,107
2123555,322,107
2123566,336,107
2123575,296,107
2123586,330,107
2123597,317,107
2123605,307,107
2123618,343,107
2123622,310,107
2123638,337,107
2123649,344,107
2123656,316,107
2123664,352,107
2123673,320,107
2123689,326,107
2123689,345,107
2123705,306,107
2123720,342,107
2123730,329,107
2123739,313,107
2123742,350,107
2123756,312,107
2123771,332,107
2123783,333,107
2123788,302,107
2123803,341,107
2123812,309,107
2123822,314,107
2123822,337,107
2123842,300,107
2123854,340,107
2123864,341,107
2123873,325,107
2123885,352,107
2123893,313,107
2123904,326,107
2123915,328,107
2123922,297,107
2123936,335,107
2123946,304,107
2123955,306,107
2123955,332,107
2123972,289,107
2123981,320,107
2123998,434,108
2124005,657,108
2124018,658,108
2124022,352,108
2124038,227,108
2124049,322,108
2124055,291,108
2124069,320,108
2124079,293,108
2124089,293,108
2124100,317,108
2124110,276,108
2124120,310,108
2124131,303,108
2124139,289,108
2124152,328,108
2124156,299,108
2124171,325,108
2124182,339,108
2124189,312,108
2124203,355,108
2124205,336,108
2124221,340,108
2124233,375,108
2124243,344,108
2124255,388,108
2124264,390,108
2124275,386,108
2124285,436,108
2124290,408,108
2124305,428,108
2124316,431,108
2124323,374,108
2124336,377,108
2124347,319,108
2124355,290,108
2124368,296,108
2124377,249,108
2124388,281,108
2124398,278,108
2124406,264,108
2124406,308,108
2124424,274,108
2124438,290,108
2124449,295,108
2124455,254,108
2124463,289,108
2124472,264,108
2124488,263,108
2124501,294,108
2124505,264,108
2124521,305,108
2124522,309,108
2124539,293,108
2124553,331,108
2124555,293,108
2124572,303,108
2124583,310,108
2124589,273,108
2124604,310,108
2124614,283,108
2124622,279,108
2124634,311,108
2124644,275,108
2124654,310,108
2124665,310,108
2124673,289,108
2124686,331,108
2124695,297,108
2124705,311,108
2124716,324,108
2124722,288,108
2124736,327,108
2124747,303,108
2124755,299,108
2124767,330,108
2124777,290,108
2124788,321,108
2124798,318,108
2124806,297,108
2124819,333,108
2124822,298,108
2124838,312,108
