Timestamp,ECGValue,BPM
2170728,263,100
2170738,310,100
2170749,268,100
2170754,288,100
2170769,305,100
2170771,263,100
2170787,309,100
2170799,285,100
2170805,280,100
2170814,321,100
2170830,277,100
2170838,317,100
2170851,317,100
2170854,292,100
2170872,341,100
2170881,300,100
2170888,313,100
2170893,333,100
2170905,284,100
2170921,332,100
2170933,306,100
2170938,294,100
2170953,335,100
2170964,289,100
2170971,325,100
2170984,325,100
2170993,295,100
2171005,347,100
2171015,311,100
2171023,329,100
2171035,355,100
2171045,312,100
2171055,361,100
2171055,340,100
2171073,332,100
2171087,374,100
2171093,325,100
2171104,359,100
2171118,361,100
2171128,330,100
2171138,385,100
2171148,345,100
2171155,358,100
2171169,382,100
2171176,339,100
2171188,386,100
2171200,365,100
2171210,354,100
2171220,396,100
2171230,345,100
2171238,389,100
2171251,396,100
2171261,362,100
2171271,411,95
2171282,365,95
2171288,366,95
2171303,386,95
2171312,335,95
2171321,378,95
2171333,356,95
2171339,342,95
2171354,384,95
2171364,328,95
2171371,412,95
2171384,643,95
2171393,659,95
2171405,649,95
2171412,255,95
2171422,316,95
2171436,382,95
2171437,323,95
2171454,363,95
2171466,345,95
2171471,329,95
2171487,372,95
2171493,325,95
2171505,357,95
2171515,360,95
2171528,325,95
2171538,377,95
2171538,344,95
2171555,361,95
2171570,394,95
2171572,352,95
2171587,400,95
2171599,388,95
2171610,375,95
2171620,421,102
2171631,377,102
2171637,414,102
2171651,431,102
2171655,406,102
2171671,463,102
2171682,434,102
2171688,437,102
2171702,447,102
2171713,368,102
2171721,372,102
2171733,324,102
2171745,282,102
2171754,315,102
2171764,261,102
2171774,290,102
2171774,305,102
2171793,271,102
2171805,324,102
2171816,293,102
2171821,295,102
2171821,324,102
2171847,268,102
2171855,306,102
2171863,293,102
2171877,271,102
2171888,318,102
2171898,274,102
2171905,295,102
2171918,304,102
2171921,260,102
2171937,310,102
2171937,280,102
2171955,284,102
2171963,319,102
2171980,269,102
2171989,310,102
2172001,297,102
2172004,272,102
2172021,312,102
2172032,265,102
2172037,285,102
2172052,297,102
2172062,256,102
2172071,308,102
2172082,280,102
2172088,286,102
2172103,323,102
2172113,276,102
2172121,315,102
2172134,304,102
2172144,278,102
2172154,323,102
2172154,277,102
2172170,301,102
2172185,316,102
2172194,276,102
2172205,327,102
2172214,298,102
2172221,295,102
2172237,330,102
2172247,280,102
2172254,320,102
2172263,313,102
2172272,288,102
2172287,337,102
2172295,295,102
2172304,316,102
2172319,332,102
2172322,288,102
2172338,347,102
2172350,325,102
2172355,319,102
2172364,354,102
2172380,302,102
2172388,332,102
2172401,320,102
2172405,293,102
2172421,343,102
2172421,302,102
2172437,324,102
2172452,345,102
2172462,294,102
2172472,365,102
2172472,516,106
2172488,658,106
2172503,655,106
2172513,224,106
2172521,274,106
2172521,328,106
2172538,288,106
2172555,334,106
2172565,294,106
2172571,310,106
2172586,329,106
2172596,284,106
2172605,335,106
2172617,311,106
2172627,306,106
2172638,351,106
2172647,306,106
2172654,348,106
2172654,346,106
2172678,317,106
2172687,366,106
2172699,325,106
2172704,345,106
2172719,375,106
2172726,343,106
2172737,403,106
2172749,393,106
2172760,397,106
2172770,445,106
2172780,400,106
2172788,434,106
2172802,423,106
2172806,369,106
2172822,388,106
2172832,319,106
2172838,310,106
2172853,317,106
2172854,263,106
2172871,307,106
2172883,283,106
2172894,273,106
2172903,316,106
2172915,267,106
2172921,304,106
2172921,305,106
2172946,272,106
2172955,321,106
2172962,281,106
2172972,294,106
2172986,320,106
2172995,275,106
2173005,323,106
2173017,301,106
2173027,287,106
2173037,330,106
2173048,281,106
2173055,312,106
2173055,313,106
2173072,281,106
2173087,331,106
2173095,292,106
2173105,301,106
2173119,323,106
2173130,275,106
2173138,322,106
2173150,303,106
2173161,291,106
2173171,336,106
2173180,291,106
2173187,324,106
2173202,327,106
2173212,291,106
2173221,340,106
2173232,299,106
2173237,306,106
2173253,333,106
2173263,287,106
2173271,332,106
2173271,315,106
2173287,302,106
2173304,347,106
2173313,301,106
2173322,330,106
2173322,336,106
2173338,297,106
2173355,345,106
2173364,312,106
2173372,319,106
2173386,350,106
2173397,306,106
2173405,350,106
2173416,334,106
2173426,315,106
2173438,357,106
2173438,311,106
2173454,339,106
2173464,347,106
2173479,309,106
2173489,360,106
2173499,327,106
2173504,332,106
2173520,361,106
2173526,312,106
2173538,354,106
2173538,340,106
2173555,318,106
2173571,359,106
2173571,320,106
2173587,352,106
2173602,360,106
2173613,317,106
2173620,366,106
2173632,324,106
2173638,325,106
2173653,355,106
2173664,304,106
2173671,345,106
2173684,331,106
2173694,309,106
2173704,345,106
2173714,322,106
2173721,533,102
2173736,659,102
2173745,638,102
2173754,264,102
2173766,256,102
2173777,309,102
2173787,323,102
2173797,270,102
2173804,311,102
2173817,299,102
2173828,276,102
2173838,323,102
2173838,278,102
2173854,307,102
2173869,325,102
2173879,290,102
2173888,346,102
2173896,318,102
2173910,319,102
2173920,353,102
2173930,305,102
2173938,347,102
2173951,339,102
2173955,324,102
2173971,380,102
2173982,350,102
2173988,388,102
2173996,415,102
2174012,385,102
2174020,437,102
2174033,405,102
2174038,390,102
2174054,396,102
2174064,314,102
2174072,322,102
2174072,290,102
2174095,252,102
2174105,297,102
2174114,256,102
2174120,283,102
2174136,305,102
2174138,263,102
2174154,311,102
2174166,276,102
2174177,273,102
2174187,306,102
2174198,257,102
2174205,296,102
2174218,291,102
2174228,267,102
2174238,317,102
2174249,277,102
2174255,296,102
2174269,314,102
2174279,272,102
2174287,322,102
2174300,296,102
2174305,293,102
2174321,332,102
2174331,283,102
2174337,319,102
2174351,312,102
2174355,284,102
2174371,329,102
2174382,287,102
2174388,304,102
2174403,322,102
2174414,279,102
2174421,328,102
2174433,303,102
2174437,301,102
2174454,342,102
2174464,293,102
2174471,333,102
2174485,332,102
2174495,304,102
2174505,353,102
2174505,315,102
2174521,329,102
2174535,345,102
2174539,302,102
2174555,347,102
2174567,321,102
2174571,314,102
2174587,354,102
2174597,305,102
2174604,341,102
2174618,337,102
2174629,305,102
2174637,352,102
2174649,322,102
2174655,340,102
2174655,360,102
2174673,317,102
2174688,357,102
2174701,323,102
2174705,310,102
2174721,351,102
2174721,302,102
2174738,335,102
2174738,338,102
2174754,305,102
2174772,344,102
2174783,378,102
2174788,644,105
2174797,659,105
2174813,476,105
2174821,238,105
2174834,314,105
2174844,330,105
2174854,366,105
2174865,322,105
2174871,358,105
2174886,360,105
2174895,328,105
2174904,378,105
2174915,343,105
2174923,354,105
2174923,380,105
2174947,343,105
2174954,397,105
2174967,386,105
2174978,382,105
2174988,430,105
2174997,389,105
2175004,423,105
2175019,428,105
2175030,397,105
2175038,451,105
2175049,424,105
2175055,451,105
2175055,489,105
2175081,455,105
2175088,506,105
2175102,480,105
2175111,447,105
2175121,449,105
2175132,364,105
2175138,363,105
2175152,345,105
2175162,301,105
2175171,351,105
2175183,318,105
2175193,330,105
2175204,360,105
2175214,314,105
2175222,356,105
2175222,332,105
2175238,311,105
2175254,349,105
2175265,299,105
2175271,328,105
2175286,336,105
2175288,307,105
2175304,361,105
2175317,324,105
2175321,332,105
2175337,357,105
2175338,310,105
2175355,352,105
2175368,337,105
2175379,316,105
2175388,359,105
2175397,310,105
2175404,335,105
2175420,342,105
2175429,302,105
2175438,346,105
2175449,305,105
2175454,305,105
2175470,329,105
2175480,281,105
2175488,325,105
2175501,311,105
2175512,295,105
2175522,341,105
2175532,297,105
2175539,323,105
2175539,328,105
2175554,292,105
2175571,348,105
2175583,314,105
2175593,316,105
2175604,344,105
2175615,289,105
2175621,326,105
2175635,310,105
2175645,290,105
2175655,331,105
2175665,283,105
2175675,307,105
2175686,312,105
2175689,265,105
2175705,421,110
2175714,646,110
2175727,657,110
2175737,382,110
2175748,183,110
2175755,316,110
2175763,308,110
2175779,281,110
2175788,324,110
2175798,277,110
2175805,304,110
2175820,313,110
2175821,276,110
2175839,328,110
2175839,296,110
2175855,301,110
2175871,340,110
2175881,298,110
2175887,344,110
2175902,336,110
2175912,314,110
2175922,363,110
2175932,322,110
2175938,350,110
2175953,373,110
2175963,346,110
2175971,411,110
2175984,394,110
2175989,411,110
2176004,452,110
2176014,403,110
2176021,432,110
2176021,394,110
2176038,334,110
2176055,348,110
2176065,277,110
2176071,283,110
2176087,288,110
2176097,245,110
2176104,297,110
2176117,271,110
2176127,272,110
2176137,309,110
2176137,259,110
2176155,298,110
2176168,288,110
2176179,261,110
2176188,310,110
2176199,266,110
2176205,289,110
2176220,307,110
2176225,265,110
2176237,313,110
2176251,281,110
2176261,276,110
2176271,314,110
2176281,265,110
2176287,304,110
2176302,299,110
2176305,275,110
2176321,324,110
2176331,280,110
2176338,296,110
2176338,313,110
2176364,268,110
2176371,314,110
2176384,287,110
2176388,282,110
2176404,321,110
2176415,275,110
2176422,317,110
2176436,312,110
2176438,284,110
2176455,333,110
2176466,289,110
2176471,304,110
2176486,321,110
2176498,278,110
2176504,324,110
2176517,297,110
2176525,293,110
2176537,331,110
2176549,283,110
2176555,322,110
2176569,318,110
2176579,289,110
2176588,340,110
2176599,299,110
2176605,316,110
2176605,337,110
2176630,294,110
2176638,340,110
2176638,316,110
2176662,307,110
2176672,347,110
2176681,300,110
2176688,334,110
2176702,332,110
2176713,304,110
2176721,352,110
2176733,314,110
2176738,338,110
2176754,366,110
2176764,321,110
2176771,361,110
2176771,333,110
2176788,317,110
2176804,355,110
2176815,302,110
2176821,336,110
2176835,335,110
2176838,304,110
2176855,354,110
2176866,307,110
2176872,344,110
2176887,554,106
2176896,658,106
2176904,655,106
2176917,270,106
2176928,264,106
2176937,358,106
2176948,296,106
2176955,326,106
2176970,328,106
2176974,297,106
2176989,349,106
2177000,311,106
2177010,326,106
2177020,350,106
2177031,305,106
2177037,352,106
2177051,333,106
2177062,323,106
2177071,370,106
2177081,326,106
2177088,360,106
2177102,363,106
2177105,335,106
2177121,393,106
2177134,366,106
2177144,387,106
2177154,425,106
2177165,391,106
2177171,445,106
2177185,429,106
2177188,415,107
2177204,447,107
2177204,376,107
2177221,374,107
2177236,349,107
2177247,293,107
2177255,326,107
2177255,279,107
2177271,286,107
2177288,309,107
2177297,261,107
2177305,308,107
2177318,288,107
2177329,273,107
2177338,317,107
2177349,269,107
2177359,301,107
2177369,305,107
2177376,269,107
2177388,317,107
2177401,279,107
2177405,288,107
2177421,312,107
2177430,264,107
2177438,308,107
2177438,290,107
2177456,273,107
2177470,319,107
2177483,275,107
2177488,306,107
2177502,309,107
2177513,271,107
2177523,319,107
2177533,281,107
2177537,285,107
2177554,315,107
2177564,269,107
2177571,314,107
2177585,299,107
2177588,282,107
2177605,328,107
2177616,282,107
2177626,312,107
2177637,314,107
2177639,276,107
2177654,325,107
2177668,288,107
2177678,295,107
2177688,326,107
2177698,281,107
2177704,325,107
2177719,310,107
2177729,292,107
2177738,336,107
2177749,288,107
2177755,314,107
2177755,321,107
2177781,282,107
2177788,334,107
2177801,298,107
2177811,303,107
2177821,334,107
2177832,291,107
2177838,334,107
2177852,319,107
2177862,300,107
2177871,342,107
2177883,294,107
2177893,320,107
2177903,327,107
2177914,290,107
2177922,342,107
2177934,310,107
2177944,324,107
2177954,367,107
2177965,320,107
2177972,360,107
2177972,344,107
2177996,313,107
2178005,359,107
2178014,311,107
2178027,331,107
2178036,344,107
2178047,303,107
2178055,351,107
2178068,311,107
2178078,326,107
2178088,543,106
2178098,659,106
2178104,656,106
2178119,270,106
2178130,248,106
2178137,360,106
2178150,311,106
2178160,331,106
2178171,345,106
2178180,306,106
2178188,354,106
2178201,322,106
2178211,322,106
2178221,359,106
2178231,311,106
2178238,357,106
2178252,355,106
2178263,336,106
2178272,389,106
2178272,350,106
2178287,377,106
2178303,397,106
2178314,358,106
2178320,413,106
2178334,389,106
2178345,399,106
2178355,446,106
2178365,417,106
2178371,469,106
2178386,472,106
2178396,452,107
2178404,491,107
2178416,418,107
2178422,403,107
2178437,384,107
2178448,315,107
2178454,350,107
2178468,316,107
2178472,313,107
2178487,354,107
2178499,310,107
2178505,353,107
2178514,348,107
2178530,321,107
2178539,361,107
2178539,313,107
2178555,328,107
2178565,342,107
2178571,299,107
2178588,351,107
2178602,331,107
2178604,328,107
2178621,368,107
2178632,322,107
2178638,358,107
2178653,351,107
2178655,322,107
2178671,364,107
2178683,321,107
2178688,336,107
2178704,354,107
2178704,307,107
2178721,350,107
2178731,318,107
2178740,310,107
2178755,347,107
2178766,299,107
2178771,332,107
2178786,329,107
2178788,303,107
2178807,354,107
2178817,315,107
2178827,332,107
2178837,352,107
2178839,306,107
2178855,353,107
2178868,325,107
2178879,314,107
2178888,354,107
2178899,306,107
2178905,341,107
2178921,340,107
2178921,313,107
2178938,363,107
2178938,321,107
2178955,334,107
2178971,352,107
2178981,307,107
2178988,361,107
2179001,343,107
2179006,334,107
2179021,372,107
2179024,322,107
2179038,349,107
2179053,344,107
2179064,309,107
2179071,356,107
2179083,313,107
2179094,325,107
2179105,346,107
2179115,289,107
2179122,365,107
2179136,540,110
2179145,659,110
2179155,654,110
2179159,221,110
2179176,275,110
2179187,331,110
2179197,289,110
2179205,332,110
2179213,295,110
2179221,305,110
2179238,330,110
2179248,284,110
2179255,331,110
2179268,310,110
2179279,299,110
2179287,346,110
2179299,304,110
2179310,342,110
2179320,347,110
2179330,317,110
2179338,367,110
2179350,329,110
2179354,343,110
2179372,376,110
2179382,341,110
2179388,400,110
2179402,397,110
2179413,398,110
2179421,453,110
2179433,412,110
2179443,439,110
2179454,426,110
2179464,356,110
2179473,365,110
2179484,294,110
2179494,278,110
2179504,293,110
2179504,243,110
2179521,291,110
2179535,277,110
2179537,265,110
2179556,311,110
2179566,265,110
2179571,294,110
2179587,298,110
2179597,262,110
2179604,315,110
2179618,278,110
2179626,287,110
2179638,316,110
2179649,265,110
2179655,307,110
2179669,287,110
2179675,269,110
2179687,312,110
2179700,267,110
2179710,297,110
2179721,305,110
2179730,269,110
2179737,321,110
2179751,281,110
2179762,282,110
2179771,310,110
2179783,258,110
2179788,300,110
2179803,283,110
2179813,266,110
2179822,317,110
2179822,274,110
2179844,310,110
2179854,326,110
2179864,294,110
2179871,346,110
2179885,311,110
2179888,313,110
2179904,343,110
2179916,296,110
2179921,338,110
2179936,324,110
2179946,304,110
2179955,348,110
2179967,298,110
2179977,320,110
2179987,328,110
2179998,289,110
2180004,343,110
2180019,313,110
2180029,323,110
2180038,360,110
2180049,313,110
2180059,357,110
2180069,342,110
2180072,315,110
2180088,357,110
2180101,307,110
2180111,334,110
2180121,347,110
2180122,312,110
2180137,369,110
2180151,337,110
2180162,337,110
2180171,368,110
2180182,315,110
2180188,353,110
2180202,336,110
2180213,309,110
2180222,354,110
2180222,309,110
2180243,332,110
2180254,346,110
2180264,316,110
2180271,373,110
2180285,342,110
2180288,336,110
2180305,367,110
2180316,313,110
2180321,347,110
2180337,334,110
2180346,310,110
2180355,355,110
2180367,306,110
2180371,326,110
2180388,337,110
2180398,289,110
2180405,449,106
2180419,657,106
2180429,659,106
2180437,461,106
2180449,207,106
2180454,330,106
2180470,318,106
2180480,275,106
2180488,320,106
2180488,275,106
2180505,296,106
2180521,317,106
2180532,280,106
2180538,336,106
2180552,312,106
2180562,312,106
2180571,355,106
2180583,312,106
2180593,352,106
2180603,348,106
2180613,324,106
2180621,375,106
2180625,337,106
2180644,363,106
2180654,389,106
2180665,359,106
2180671,424,106
2180685,412,106
2180688,416,106
2180704,460,106
2180713,413,106
2180721,444,106
2180737,423,106
2180739,364,106
2180754,379,106
2180768,310,106
2180771,308,106
2180788,317,106
2180798,269,106
2180805,317,106
2180805,290,106
2180829,282,106
2180838,321,106
2180850,271,106
2180855,305,106
2180871,302,106
2180880,269,106
2180887,320,106
2180901,276,106
2180912,291,106
2180921,312,106
2180932,270,106
2180938,317,106
2180952,290,106
2180963,276,106
2180971,315,106
2180983,265,106
2180987,301,106
2181004,302,106
2181013,276,106
2181021,326,106
2181021,287,106
2181038,300,106
2181055,319,106
2181065,268,106
2181070,313,106
2181086,287,106
2181088,277,106
2181104,316,106
2181112,270,106
2181127,308,106
2181137,310,106
2181138,278,106
2181155,326,106
2181168,286,106
2181178,294,106
2181188,317,106
2181199,268,106
2181205,314,106
2181219,294,106
2181221,281,106
2181237,322,106
2181237,274,106
2181260,307,106
2181271,308,106
2181272,274,106
2181288,321,106
2181288,281,106
2181305,292,106
2181322,317,106
2181322,273,106
2181339,322,106
2181339,305,106
2181364,295,106
2181372,341,106
2181384,292,106
2181394,321,106
2181404,324,106
2181415,287,106
2181421,335,106
2181435,303,106
2181444,324,106
2181455,352,106
2181455,303,106
2181471,350,106
2181486,324,106
2181488,304,106
2181504,344,106
2181517,293,106
2181527,322,106
2181538,324,106
2181547,286,106
2181555,331,106
2181568,290,106
2181574,435,102
2181589,658,102
2181589,658,102
2181605,347,102
2181619,225,102
2181629,293,102
2181637,339,102
2181651,281,102
2181661,312,102
2181671,316,102
2181681,279,102
2181687,328,102
2181701,291,102
2181705,306,102
2181722,337,102
2181733,299,102
2181738,353,102
2181753,344,102
2181762,333,102
2181771,377,102
2181784,333,102
2181788,360,102
2181804,368,102
2181815,338,102
2181821,396,102
2181835,374,102
2181846,397,102
2181855,444,102
2181866,414,102
2181876,466,102
2181887,453,102
2181897,429,102
2181904,446,102
2181917,359,102
2181922,346,102
2181937,326,102
2181949,268,102
2181954,311,102
2181969,281,102
2181972,286,102
2181988,325,102
2181999,283,102
2182005,328,102
2182020,310,102
2182030,285,102
2182037,330,102
2182051,282,102
2182055,310,102
2182071,322,102
2182071,284,102
2182088,337,102
2182088,312,102
2182113,316,102
2182121,347,102
2182133,301,102
2182138,341,102
2182154,328,102
2182164,305,102
2182171,350,102
2182184,305,102
2182188,329,102
2182205,340,102
2182214,302,102
2182221,352,102
2182236,318,102
2182238,319,102
2182254,356,102
2182266,309,102
2182276,350,102
2182288,337,102
2182297,317,102
2182304,363,102
2182318,323,102
2182328,346,102
2182337,361,102
2182348,326,102
2182354,376,102
2182368,348,102
2182379,348,102
2182388,380,102
2182400,330,102
2182410,368,102
2182420,368,102
2182430,347,102
2182438,392,102
2182451,349,102
2182462,364,102
2182472,374,102
2182482,332,102
2182488,379,102
2182503,347,102
2182513,343,102
2182522,375,102
2182533,323,102
2182544,358,102
2182554,485,106
2182555,658,106
2182571,659,106
2182581,388,106
2182595,253,106
2182605,359,106
2182613,325,106
2182621,365,106
2182636,336,106
2182638,331,106
2182655,367,106
2182666,320,106
2182671,359,106
2182687,356,106
2182698,333,106
2182705,384,106
2182718,351,106
2182728,380,106
2182738,403,106
2182749,366,106
2182755,416,106
2182769,389,106
2182774,379,106
2182788,413,106
2182800,367,106
2182804,414,106
2182821,425,106
2182831,414,106
2182837,477,106
2182852,446,106
2182861,471,105
2182871,477,105
2182882,400,105
2182888,403,105
2182888,337,105
2182913,297,105
2182921,312,105
2182921,257,105
2182938,293,105
2182954,291,105
2182964,268,105
2182971,321,105
2182985,280,105
2182988,293,105
2183005,306,105
2183016,258,105
2183021,304,105
2183036,277,105
2183038,271,105
2183054,313,105
2183068,270,105
2183077,305,105
2183087,303,105
2183098,271,105
2183105,316,105
2183118,273,105
2183126,291,105
2183139,312,105
2183139,268,105
2183155,316,105
2183169,295,105
2183180,288,105
2183188,323,105
2183201,274,105
2183205,304,105
2183221,298,105
2183231,264,105
2183237,315,105
2183252,274,105
2183262,288,105
2183270,315,105
2183282,274,105
2183292,320,105
2183304,296,105
2183313,284,105
2183321,324,105
2183334,274,105
2183338,308,105
2183354,311,105
2183365,279,105
2183371,331,105
2183385,294,105
2183395,306,105
2183406,331,105
2183406,286,105
2183421,330,105
2183436,307,105
2183447,296,105
2183454,335,105
2183467,289,105
2183478,323,105
2183488,323,105
2183498,290,105
2183506,341,105
2183519,302,105
2183529,313,105
2183538,340,105
2183549,294,105
2183560,337,105
2183570,318,105
2183581,314,105
2183587,364,105
2183601,314,105
2183606,340,105
2183621,342,105
2183632,300,105
2183638,346,105
2183652,306,105
2183662,317,105
2183673,344,105
2183682,298,105
2183693,343,105
2183704,317,105
2183714,339,105
2183721,586,106
2183734,659,106
2183738,628,106
2183755,249,106
2183765,253,106
2183774,343,106
2183786,291,106
2183796,294,106
2183806,323,106
2183817,277,106
2183823,324,106
2183837,308,106
2183847,295,106
2183855,343,106
2183855,298,106
2183878,329,106
2183889,339,106
2183889,307,106
2183906,359,106
2183920,324,106
2183922,334,106
2183938,367,106
2183938,323,106
2183960,370,106
2183971,365,106
2183981,362,106
2183988,423,106
2184001,393,106
2184006,432,106
2184022,446,106
2184033,405,106
2184037,442,106
2184053,379,106
2184054,346,106
2184071,346,106
2184071,276,106
2184088,304,106
2184103,284,106
2184115,263,106
2184121,310,106
2184135,264,106
2184145,289,106
2184154,299,106
2184154,259,106
2184171,308,106
2184186,275,106
2184196,279,106
2184205,312,106
2184217,264,106
2184227,307,106
2184237,295,106
2184247,274,106
2184255,317,106
2184268,270,106
2184274,292,106
2184288,299,106
2184298,263,106
2184307,316,106
2184319,287,106
2184330,290,106
2184337,324,106
2184351,276,106
2184360,315,106
2184371,304,106
2184381,280,106
2184388,325,106
2184402,279,106
2184412,303,106
2184421,317,106
2184432,280,106
2184443,331,106
2184453,301,106
2184464,300,106
2184472,333,106
2184472,284,106
2184487,325,106
2184504,316,106
2184514,295,106
2184521,345,106
2184535,303,106
2184545,326,106
2184554,339,106
2184566,295,106
2184576,344,106
2184587,313,106
2184597,312,106
2184607,350,106
2184617,304,106
2184627,343,106
2184637,336,106
2184638,313,106
2184655,361,106
2184665,314,106
2184671,334,106
2184687,346,106
2184700,303,106
2184707,352,106
2184720,322,106
2184722,322,106
2184738,359,106
2184750,312,106
2184755,353,106
2184771,346,106
2184782,317,106
2184788,362,106
2184802,316,106
2184809,333,106
2184821,345,106
2184821,302,106
2184838,361,106
2184838,337,106
2184863,333,106
2184871,366,106
2184884,313,106
2184889,342,106
2184905,331,106
2184915,298,106
2184921,342,106
2184936,294,106
2184946,312,106
2184955,328,106
2184966,273,106
2184977,382,106
2184986,581,102
2184997,658,102
2185007,558,102
2185018,173,102
2185022,290,102
2185038,301,102
2185049,258,102
2185054,306,102
2185069,265,102
2185079,282,102
2185088,304,102
2185100,262,102
2185110,314,102
2185120,290,102
2185130,283,102
2185139,324,102
2185139,281,102
2185155,320,102
2185171,323,102
2185179,299,102
2185188,359,102
2185188,324,102
2185213,345,102
2185221,372,102
2185233,336,102
2185238,393,102
2185254,380,102
2185264,383,102
2185272,433,102
2185285,392,102
2185288,429,102
2185304,417,102
2185315,360,102
2185325,374,102
2185336,300,102
2185338,287,102
2185355,295,102
2185367,247,102
2185377,295,102
2185387,279,102
2185397,278,102
2185405,325,102
2185418,279,102
2185428,315,102
2185438,310,102
2185438,277,102
2185459,322,102
2185469,280,102
2185479,292,102
2185488,316,102
2185488,271,102
2185510,322,102
2185521,303,102
2185531,296,102
2185538,344,102
2185551,297,102
2185554,330,102
2185571,330,102
2185582,299,102
2185592,349,102
2185603,308,102
2185613,319,102
2185622,345,102
2185633,297,102
2185644,342,102
2185654,324,102
2185665,314,102
2185672,352,102
2185672,307,102
2185690,337,102
2185704,338,102
2185715,305,102
2185722,354,102
2185736,319,102
2185746,330,102
2185754,357,102
2185767,313,102
2185776,361,102
2185787,339,102
2185798,326,102
2185808,363,102
2185814,317,102
2185822,348,102
2185838,351,102
2185849,314,102
2185854,367,102
2185870,328,102
2185871,340,102
2185888,367,102
2185901,321,102
2185911,366,102
2185921,351,102
2185931,334,102
2185938,378,102
2185938,342,102
2185955,377,102
2185971,377,102
2185983,343,102
2185988,387,102
2186003,343,102
2186013,351,102
2186021,377,102
2186033,333,102
2186044,375,102
2186054,357,102
2186065,341,102
2186075,373,102
2186085,428,105
2186096,658,105
2186104,659,105
2186116,496,105
2186123,271,105
2186137,325,105
2186138,349,105
2186155,367,105
2186167,319,105
2186172,367,105
2186188,353,105
2186198,337,105
2186208,382,105
2186214,338,105
2186229,365,105
2186238,373,105
2186250,340,105
2186255,395,105
2186270,364,105
2186281,374,105
2186287,409,105
2186301,364,105
2186309,410,105
2186321,400,105
2186332,386,105
2186338,440,105
2186338,405,105
2186354,449,105
2186372,472,105
2186383,447,105
2186393,502,105
2186404,464,105
2186414,444,105
2186421,433,105
2186434,345,105
2186445,355,105
2186455,315,105
2186465,285,105
2186475,324,105
2186475,282,105
2186488,310,105
2186505,320,105
2186517,283,105
2186521,331,105
2186537,294,105
2186547,291,105
2186554,317,105
2186569,272,105
2186578,316,105
2186588,306,105
2186598,290,105
2186609,339,105
2186619,294,105
2186629,317,105
2186638,324,105
2186650,284,105
2186655,334,105
2186671,302,105
2186680,304,105
2186688,335,105
2186688,288,105
2186712,330,105
2186721,316,105
2186732,291,105
2186737,335,105
2186753,287,105
2186763,308,105
2186771,318,105
2186783,279,105
2186794,329,105
2186804,304,105
2186814,308,105
2186824,344,105
2186834,296,105
2186837,334,105
2186854,318,105
2186866,294,105
2186871,335,105
2186886,288,105
2186896,309,105
2186904,324,105
2186917,286,105
2186926,334,105
2186937,303,105
2186948,302,105
2186955,333,105
2186969,283,105
2186978,321,105
2186988,312,105
2186988,290,105
2187009,335,105
2187020,292,105
2187022,315,105
2187038,331,105
2187050,290,105
2187061,338,105
2187071,308,105
2187081,307,105
2187088,339,105
2187102,293,105
2187111,333,105
2187122,324,105
2187125,311,105
2187138,365,105
2187138,319,105
2187155,333,105
2187171,344,105
2187184,293,105
2187188,339,105
2187204,305,105
2187214,305,105
2187222,342,105
2187222,294,105
2187246,333,105
2187254,316,105
2187266,330,105
2187272,589,105
2187272,659,105
2187297,614,105
2187305,252,105
2187315,258,105
2187321,344,105
2187337,301,105
2187338,292,105
2187356,330,105
2187368,281,105
2187372,319,105
2187387,314,105
2187400,289,105
2187409,338,105
2187420,300,105
2187422,322,105
2187439,344,105
2187451,307,105
2187455,356,105
2187471,331,105
2187471,325,105
2187489,365,105
2187502,323,105
2187509,366,105
2187521,372,105
2187533,358,105
2187538,421,105
2187554,392,105
2187564,419,105
2187571,441,105
2187584,398,105
2187594,436,105
2187605,383,105
2187615,342,105
2187623,349,105
2187635,276,105
2187645,296,105
2187654,283,105
2187654,254,105
2187671,303,105
2187687,264,105
2187697,278,105
2187704,302,105
2187718,257,105
2187728,303,105
2187738,277,105
2187738,269,105
2187754,310,105
2187769,259,105
2187778,296,105
2187787,295,105
2187799,265,105
2187810,314,105
2187820,272,105
2187827,283,105
2187837,304,105
2187851,259,105
2187861,309,105
2187871,288,105
2187881,276,105
2187888,317,105
2187902,268,105
2187910,301,105
2187922,297,105
2187932,266,105
2187943,317,105
2187953,276,105
2187964,290,105
2187971,315,105
2187984,271,105
2187995,320,105
2188004,298,105
2188015,288,105
2188025,328,105
2188036,276,105
2188038,308,105
2188054,308,105
2188067,277,105
2188077,327,105
2188087,290,105
2188097,305,105
2188104,330,105
2188117,284,105
2188128,330,105
2188138,306,105
2188149,293,105
2188154,335,105
2188154,288,105
2188171,320,105
2188188,322,105
2188200,291,105
2188210,339,105
2188221,297,105
2188231,309,105
2188238,330,105
2188251,283,105
2188255,328,105
2188272,305,105
2188281,293,105
2188287,336,105
2188302,289,105
2188312,324,105
2188321,326,105
2188321,292,105
2188337,340,105
2188354,302,105
2188365,312,105
2188372,335,105
2188372,288,105
2188389,341,105
2188404,327,105
2188415,312,105
2188421,352,105
2188436,302,105
2188437,325,105
2188454,327,105
2188467,289,105
2188472,337,105
2188487,299,105
2188498,311,105
2188504,334,105
2188519,276,105
2188522,356,105
2188538,541,100
2188539,659,100
2188555,642,100
2188565,204,100
2188580,276,100
2188588,328,100
2188588,283,100
2188604,329,100
2188621,291,100
2188631,301,100
2188638,329,100
2188652,282,100
2188662,333,100
2188671,318,100
2188676,308,100
2188688,358,100
2188688,322,100
2188713,356,100
2188721,365,100
2188734,331,100
2188739,383,100
2188754,350,100
2188765,363,100
2188772,395,100
2188785,356,100
2188788,413,100
2188804,413,100
2188816,408,100
2188821,467,100
2188836,427,100
2188846,457,100
2188854,453,100
2188867,394,100
2188875,405,100
2188888,332,100
2188888,308,100
2188905,321,100
2188914,271,100
2188928,316,100
2188937,306,100
2188950,294,100
2188960,342,100
2188969,295,100
2188980,318,100
2188988,325,100
2188988,285,100
2189011,334,100
2189020,299,100
2189032,304,100
2189038,337,100
2189053,297,100
2189062,344,100
2189071,337,100
2189083,323,100
2189093,372,100
2189103,327,100
2189114,352,100
2189123,360,100
2189123,318,100
2189144,365,100
2189155,329,100
2189165,330,100
2189171,361,100
2189186,315,100
2189196,360,100
2189205,350,100
2189217,334,100
2189227,382,100
2189237,336,100
2189247,361,100
2189254,371,100
2189267,331,100
2189273,380,100
2189288,345,100
2189298,344,100
2189304,375,100
2189315,327,100
2189330,368,100
2189338,355,100
2189338,334,100
2189354,380,100
2189370,333,100
2189380,356,100
2189389,367,100
2189401,326,100
2189412,372,100
2189421,340,100
2189433,341,100
2189438,375,100
2189438,329,100
2189463,370,100
2189471,358,100
2189483,344,100
2189493,395,100
2189504,344,100
2189513,364,100
2189521,369,100
2189526,321,100
2189537,369,100
2189555,336,100
2189566,336,100
2189571,370,100
2189585,319,100
2189596,357,100
2189604,336,100
2189616,409,101
2189627,658,101
2189637,659,101
2189647,492,101
2189655,244,101
2189655,294,101
2189671,358,101
2189687,316,101
2189687,311,101
2189704,343,101
2189719,289,101
2189729,328,101
2189738,319,101
2189749,295,101
2189760,346,101
2189771,305,101
2189773,335,101
2189788,355,101
2189802,316,101
2189812,369,101
2189821,343,101
2189832,339,101
2189839,373,101
2189839,329,101
2189855,373,101
2189871,379,101
2189883,372,101
2189894,440,101
2189904,415,101
2189911,450,101
2189921,470,101
2189935,420,101
2189945,446,101
2189954,378,101
2189954,330,101
2189972,335,101
2189986,263,101
2189988,290,101
2190005,280,101
2190018,258,101
2190028,312,101
2190037,271,101
2190047,297,101
2190054,317,101
2190068,273,101
2190078,318,101
2190087,286,101
2190099,281,101
2190104,318,101
2190119,269,101
2190122,308,101
2190138,304,101
2190151,277,101
2190155,325,101
2190171,278,101
2190181,296,101
2190188,314,101
2190188,270,101
2190212,319,101
2190222,293,101
2190222,289,101
2190237,327,101
2190253,276,101
2190257,310,101
2190271,304,101
2190271,272,101
2190287,320,101
2190304,278,101
2190313,297,101
2190321,319,101
2190335,278,101
2190338,329,101
2190355,305,101
2190366,297,101
2190372,334,101
2190387,282,101
2190397,318,101
2190404,313,101
2190417,284,101
2190428,334,101
2190438,293,101
2190447,308,101
2190454,329,101
2190469,284,101
2190473,333,101
2190487,308,101
2190499,301,101
2190504,342,101
2190513,296,101
2190531,333,101
2190538,331,101
2190538,298,101
2190561,347,101
2190571,304,101
2190582,317,101
2190588,338,101
2190588,293,101
2190612,342,101
2190621,318,101
2190621,311,101
2190643,353,101
2190654,302,101
2190663,336,101
2190671,335,101
2190684,300,101
2190694,345,101
2190704,311,101
2190715,333,101
2190725,357,101
2190725,307,101
2190746,354,101
2190755,324,101
2190766,306,101
2190776,347,101
2190787,296,101
2190797,329,101
2190804,331,101
2190817,300,101
2190828,344,101
2190837,317,101
2190848,501,102
2190855,659,102
2190855,656,102
2190879,302,102
2190888,258,102
2190900,312,102
2190905,339,102
2190921,284,102
2190931,319,102
2190938,320,102
2190951,289,102
2190954,340,102
2190971,305,102
2190982,320,102
2190989,347,102
2190989,303,102
2191013,352,102
2191022,332,102
2191022,321,102
2191044,367,102
2191053,319,102
2191064,356,102
2191071,366,102
2191085,339,102
2191093,402,102
2191104,374,102
2191115,398,102
2191121,439,102
2191136,402,102
2191138,451,102
2191154,427,102
2191154,406,102
2191171,431,102
2191180,353,102
2191198,356,102
2191205,337,102
2191213,288,102
2191221,332,102
2191238,288,102
2191249,298,102
2191254,325,102
2191269,274,102
2191279,315,102
2191287,294,102
2191299,277,102
2191305,322,102
2191321,274,102
2191324,305,102
2191338,314,102
2191351,280,102
2191356,333,102
2191371,296,102
2191382,300,102
2191388,325,102
2191403,272,102
2191413,314,102
2191422,297,102
2191422,278,102
2191438,328,102
2191454,285,102
2191464,313,102
2191474,319,102
2191474,279,102
2191488,325,102
2191504,284,102
2191516,288,102
2191521,317,102
2191535,268,102
2191538,313,102
2191555,301,102
2191564,285,102
2191571,334,102
2191588,286,102
2191598,315,102
2191605,320,102
2191618,277,102
2191629,325,102
2191638,286,102
2191649,287,102
2191655,322,102
2191670,273,102
2191680,317,102
2191688,304,102
2191688,280,102
2191704,323,102
2191721,272,102
2191731,294,102
2191738,301,102
2191738,264,102
2191762,314,102
2191771,282,102
2191783,287,102
2191788,320,102
2191803,272,102
2191813,315,102
2191821,299,102
2191833,275,102
2191844,321,102
2191854,273,102
2191855,300,102
2191873,313,102
2191882,274,102
2191889,328,102
2191905,297,102
2191916,297,102
2191921,329,102
2191936,289,102
2191947,334,102
2191955,320,102
2191968,294,102
2191972,337,102
2191988,282,102
2191998,307,102
2192005,320,102
2192019,282,102
2192029,332,102
2192038,301,102
2192043,301,102
2192060,327,102
2192070,340,102
2192080,629,100
2192088,659,100
2192101,507,100
2192112,231,100
2192121,269,100
2192131,319,100
2192138,320,100
2192138,280,100
2192155,329,100
2192171,303,100
2192183,302,100
2192188,338,100
2192203,291,100
2192214,335,100
2192221,329,100
2192234,312,100
2192238,368,100
2192255,328,100
2192264,354,100
2192271,371,100
2192271,337,100
2192289,391,100
2192305,367,100
2192315,372,100
2192327,414,100
2192337,378,100
2192346,435,100
2192354,440,100
2192368,424,100
2192378,475,100
2192388,429,100
2192388,435,100
2192404,423,100
2192415,344,100
2192429,361,100
2192438,307,100
2192438,288,100
2192460,320,100
2192470,273,100
2192471,315,100
2192487,313,100
2192501,289,100
2192512,338,100
2192522,294,100
2192532,312,100
2192538,332,100
2192552,288,100
2192555,335,100
2192572,310,100
2192583,309,100
2192594,350,100
2192604,303,100
2192614,341,100
2192620,338,100
2192635,317,100
2192644,368,100
2192654,330,100
2192654,349,100
2192671,367,100
2192686,323,100
2192697,367,100
2192704,339,100
2192716,328,100
2192727,361,100
2192737,313,100
2192748,353,100
2192755,351,100
2192755,326,100
2192778,377,100
2192788,340,100
2192788,361,100
2192805,382,100
2192814,336,100
2192826,383,100
2192838,355,100
2192838,342,100
2192861,380,100
2192871,330,100
2192881,363,100
2192888,361,100
2192901,331,100
2192912,381,100
2192921,338,100
2192933,359,100
2192938,388,100
2192952,336,100
2192963,379,100
2192971,346,100
2192975,325,100
2192988,361,100
2193005,312,100
2193014,347,100
2193021,348,100
2193035,318,100
2193045,366,100
2193054,314,100
2193066,390,100
2193075,650,103
2193075,659,103
2193088,582,103
2193107,217,103
2193118,283,103
2193121,356,103
2193138,297,103
2193148,335,103
2193155,339,103
2193169,310,103
2193179,359,103
2193188,317,103
2193188,328,103
2193205,354,103
2193220,312,103
2193230,362,103
2193238,348,103
2193238,342,103
2193261,389,103
2193271,346,103
2193282,381,103
2193288,387,103
2193302,354,103
2193305,410,103
2193321,377,103
2193332,404,103
2193338,449,103
2193353,420,103
2193364,480,103
2193372,468,103
2193372,450,103
2193388,471,103
2193404,380,103
2193415,364,103
2193421,330,103
2193421,267,103
2193446,306,103
2193454,266,103
2193466,278,103
2193472,317,103
2193477,275,103
2193487,322,103
2193504,301,103
2193518,281,103
2193527,317,103
2193538,260,103
2193548,287,103
2193554,293,103
2193554,259,103
2193579,312,103
2193588,280,103
2193600,286,103
2193604,315,103
2193620,263,103
2193631,304,103
2193638,287,103
2193651,271,103
2193654,320,103
2193671,276,103
2193671,308,103
2193688,316,103
2193703,278,103
2193713,325,103
2193721,285,103
2193733,288,103
2193738,314,103
2193754,265,103
2193754,306,103
2193771,293,103
2193780,275,103
2193795,323,103
2193804,278,103
2193815,305,103
2193821,314,103
2193836,275,103
2193837,324,103
2193854,288,103
2193866,294,103
2193875,326,103
2193887,278,103
2193888,322,103
2193904,308,103
2193915,285,103
2193928,331,103
2193938,284,103
2193948,307,103
2193954,322,103
2193969,284,103
2193979,335,103
2193989,303,103
2194000,304,103
2194011,337,103
2194020,287,103
2194031,328,103
2194038,316,103
2194051,293,103
2194055,339,103
2194071,295,103
2194082,330,103
2194092,348,103
2194103,302,103
2194113,348,103
2194122,310,103
2194122,302,103
2194137,334,103
2194154,285,103
2194164,328,103
2194171,319,103
2194171,296,103
2194195,344,103
2194205,285,103
2194215,385,103
2194221,640,105
2194235,658,105
2194246,506,105
2194255,204,105
2194263,287,105
2194277,338,105
2194287,274,105
2194298,314,105
2194305,305,105
2194318,279,105
2194329,328,105
2194338,283,105
2194349,304,105
2194354,321,105
2194369,280,105
2194375,334,105
2194388,310,105
2194401,309,105
2194405,352,105
2194420,306,105
2194420,349,105
2194437,346,105
2194452,325,105
2194462,380,105
2194472,347,105
2194482,378,105
2194487,409,105
2194503,376,105
2194513,431,105
2194521,404,105
2194534,395,105
2194544,418,105
2194554,340,105
2194565,348,105
2194572,318,105
2194585,272,105
2194595,310,105
2194604,262,105
2194615,280,105
2194626,299,105
2194636,251,105
2194647,300,105
2194655,271,105
2194655,260,105
2194673,298,105
2194688,247,105
2194699,286,105
2194704,287,105
2194719,257,105
2194728,308,105
2194737,268,105
2194749,282,105
2194760,305,105
2194770,258,105
2194780,302,105
2194788,277,105
2194800,266,105
2194805,309,105
2194821,259,105
2194832,301,105
2194840,303,105
2194852,270,105
2194855,318,105
2194871,277,105
2194883,288,105
2194893,309,105
2194903,262,105
2194914,310,105
2194921,291,105
2194921,283,105
2194944,330,105
2194955,280,105
2194963,319,105
2194970,320,105
2194985,285,105
2194988,334,105
2195005,292,105
2195016,302,105
2195023,328,105
2195037,281,105
2195038,328,105
2195055,310,105
2195068,301,105
2195071,348,105
2195088,303,105
2195099,333,105
2195105,337,105
2195119,303,105
2195121,354,105
2195138,314,105
2195150,324,105
2195159,352,105
2195171,307,105
2195180,357,105
2195188,338,105
2195201,322,105
2195205,367,105
2195220,316,105
2195232,347,105
2195238,354,105
2195252,331,105
2195263,385,105
2195271,344,105
2195283,354,105
2195288,376,105
2195304,319,105
2195314,362,105
2195323,344,105
2195335,326,105
2195345,368,105
2195355,320,105
2195366,344,105
2195371,342,105
2195386,418,103
2195396,659,103
2195405,659,103
2195417,447,103
2195423,256,103
2195423,297,103
2195447,355,103
2195455,330,103
2195469,312,103
2195471,360,103
2195489,315,103
2195489,341,103
2195505,356,103
2195519,325,103
2195522,380,103
2195538,351,103
2195538,361,103
2195556,392,103
2195564,346,103
2195571,390,103
2195587,378,103
2195602,362,103
2195605,412,103
2195621,374,103
2195631,410,103
2195637,433,103
2195652,414,103
2195664,482,103
2195671,460,103
2195684,471,103
2195694,505,103
2195704,449,103
2195714,468,103
2195723,420,103
2195735,365,103
2195746,384,103
2195755,321,103
2195766,335,103
2195772,344,103
2195772,307,103
2195796,359,103
2195805,329,103
2195818,327,103
2195822,356,103
2195837,301,103
2195848,339,103
2195855,324,103
2195868,304,103
2195879,353,103
2195888,313,103
2195888,343,103
2195904,361,103
2195919,322,103
2195930,371,103
2195938,341,103
2195951,338,103
2195955,372,103
2195970,320,103
2195981,357,103
2195988,345,103
2196001,317,103
2196005,361,103
2196022,311,103
2196033,330,103
2196038,344,103
2196053,298,103
2196064,345,103
2196074,317,103
2196084,310,103
2196087,344,103
2196104,289,103
2196115,329,103
2196122,325,103
2196135,296,103
2196145,344,103
2196154,300,103
2196166,320,103
2196177,337,103
2196187,295,103
2196197,343,103
2196204,315,103
2196218,306,103
2196228,343,103
2196238,291,103
2196248,323,103
2196255,318,103
2196255,287,103
2196280,336,103
2196288,293,103
2196300,313,103
2196305,335,103
2196320,291,103
2196331,342,103
2196338,317,103
2196351,305,103
2196362,343,103
2196370,301,103
2196382,343,103
2196388,336,103
2196402,299,103
2196413,347,103
2196421,299,103
2196433,311,103
2196443,331,103
2196454,286,103
2196464,334,103
2196472,308,103
2196484,299,103
2196495,330,103
2196504,310,103
2196515,545,106
2196525,659,106
2196536,629,106
2196546,256,106
2196554,246,106
2196567,312,106
2196572,322,106
2196588,274,106
2196597,324,106
2196605,300,106
2196617,289,106
2196628,331,106
2196638,286,106
2196648,324,106
2196654,325,106
2196669,296,106
2196673,350,106
2196689,312,106
2196700,330,106
2196710,357,106
2196720,313,106
2196722,364,106
2196738,346,106
2196738,346,106
2196754,396,106
2196771,360,106
2196771,406,106
2196788,422,106
2196802,399,106
2196813,458,106
2196822,414,106
2196833,413,106
2196838,408,106
2196854,324,106
2196864,336,106
2196871,290,106
2196884,261,106
2196895,302,106
2196904,257,106
2196915,295,106
2196925,306,106
2196936,272,106
2196946,325,106
2196955,284,106
2196967,291,106
2196973,313,106
2196987,262,106
2196989,306,106
2197005,286,106
2197017,269,106
2197029,316,106
2197038,268,106
2197049,300,106
2197054,306,106
2197069,272,106
2197080,325,106
2197087,285,106
2197101,293,106
2197110,321,106
2197121,269,106
2197131,308,106
2197138,289,106
2197151,267,106
2197154,312,106
2197172,264,106
2197182,301,106
2197192,316,106
2197203,287,106
2197213,351,106
2197221,326,106
2197234,339,106
2197245,371,106
2197254,317,106
2197264,355,106
2197273,327,106
2197273,296,106
2197295,331,106
2197304,273,106
2197316,303,106
2197321,317,106
2197337,287,106
2197347,349,106
2197354,323,106
2197367,336,106
2197378,368,106
2197388,315,106
2197399,351,106
2197405,325,106
2197419,295,106
2197429,336,106
2197438,285,106
2197449,313,106
2197460,326,106
2197470,294,106
2197479,350,106
2197488,317,106
2197488,322,106
2197511,353,106
2197521,303,106
2197532,349,106
2197538,334,106
2197552,311,106
2197562,358,106
2197571,307,106
2197583,331,106
2197593,343,106
2197604,304,106
2197613,357,106
2197624,325,106
2197635,324,106
2197637,360,106
2197654,320,106
2197665,365,106
2197673,350,106
2197686,320,106
2197689,364,106
2197705,309,106
2197716,331,106
2197722,343,106
2197722,303,106
2197747,356,106
2197754,324,106
2197768,323,106
2197771,348,106
2197788,339,106
2197799,592,105
2197805,659,105
2197818,608,105
2197829,266,105
2197838,270,105
2197850,331,105
2197860,330,105
2197871,286,105
2197881,339,105
2197888,306,105
2197901,305,105
2197912,340,105
2197921,290,105
2197932,333,105
2197938,326,105
2197952,305,105
2197963,358,105
2197971,317,105
2197983,341,105
2197994,359,105
2198004,318,105
2198013,369,105
2198023,338,105
2198033,343,105
2198038,384,105
2198054,355,105
2198066,398,105
2198075,413,105
2198086,395,105
2198096,443,105
2198104,406,105
2198116,405,105
2198121,400,105
2198137,324,105
2198137,335,105
2198155,292,105
2198168,266,105
2198171,293,105
2198187,248,105
2198199,277,105
2198204,279,105
2198219,249,105
2198229,292,105
2198237,256,105
2198250,265,105
2198255,287,105
2198271,246,105
2198281,291,105
2198288,272,105
2198288,261,105
2198312,301,105
2198322,259,105
2198322,286,105
2198337,286,105
2198353,255,105
2198363,298,105
2198371,263,105
2198383,273,105
2198394,298,105
2198404,258,105
2198414,299,105
2198424,281,105
2198435,268,105
2198445,305,105
2198454,261,105
2198465,285,105
2198472,286,105
2198472,255,105
2198497,296,105
2198505,259,105
2198518,264,105
2198527,287,105
2198537,239,105
2198548,278,105
2198555,259,105
2198562,244,105
2198579,278,105
2198588,232,105
2198598,264,105
2198605,275,105
2198620,250,105
2198621,306,105
2198637,283,105
2198637,304,105
2198654,347,105
2198671,324,105
2198681,389,105
2198688,396,105
2198702,400,105
2198705,453,106
2198721,412,106
2198733,437,106
2198738,438,106
2198754,392,106
2198763,409,106
2198771,352,106
2198774,347,106
2198788,369,106
2198805,329,106
2198815,376,106
2198821,385,106
2198821,398,106
2198845,454,106
2198854,407,106
2198866,413,106
2198871,404,106
2198887,349,106
2198897,367,106
2198905,321,106
2198917,316,106
2198928,346,106
2198938,311,106
2198948,350,106
2198954,342,106
2198969,365,106
2198978,608,106
2198987,660,106
2198999,658,106
2199010,299,106
2199020,235,106
2199022,339,106
2199038,299,106
2199051,293,106
2199054,326,106
2199071,292,106
2199071,338,106
2199088,338,106
2199102,327,106
2199112,368,106
2199121,329,106
2199121,345,106
2199143,355,106
2199154,324,106
2199164,370,106
2199171,350,106
2199185,362,106
2199195,401,103
2199205,374,103
2199215,419,103
2199221,416,103
2199236,397,103
2199246,439,103
2199255,403,103
2199266,429,103
2199277,445,103
2199287,410,103
2199297,452,103
2199305,406,103
