Timestamp,ECGValue,BPM
2200905,280,105
2200930,327,105
2200938,283,105
2200950,308,105
2200955,310,105
2200962,267,105
2200981,308,105
2200987,272,105
2201001,277,105
2201012,302,105
2201022,263,105
2201022,308,105
2201038,284,105
2201053,297,105
2201055,535,106
2201071,658,106
2201084,622,106
2201088,221,106
2201104,214,106
2201114,311,106
2201121,274,106
2201134,283,106
2201145,311,106
2201155,274,106
2201166,315,106
2201175,298,106
2201187,282,106
2201188,325,106
2201204,285,106
2201218,315,106
2201222,329,106
2201238,303,106
2201248,355,106
2201255,329,106
2201269,341,106
2201271,373,106
2201289,336,106
2201289,380,106
2201305,372,106
2201315,371,106
2201321,427,106
2201337,398,106
2201351,435,106
2201361,451,106
2201371,419,106
2201372,453,106
2201388,394,106
2201402,355,106
2201405,347,106
2201421,276,106
2201433,301,106
2201438,287,106
2201453,273,106
2201463,325,106
2201471,288,106
2201484,315,106
2201495,324,106
2201504,286,106
2201515,323,106
2201524,291,106
2201524,300,106
2201545,330,106
2201555,291,106
2201566,334,106
2201576,325,106
2201587,308,106
2201596,351,106
2201604,312,106
2201617,333,106
2201628,346,106
2201637,312,106
2201648,355,106
2201654,330,106
2201654,332,106
2201679,361,106
2201688,314,106
2201688,351,106
2201705,343,106
2201720,324,106
2201730,368,106
2201737,329,106
2201750,352,106
2201761,367,106
2201771,334,106
2201782,380,106
2201788,356,106
2201803,359,106
2201812,394,106
2201822,355,106
2201832,391,106
2201838,381,106
2201838,359,106
2201855,398,106
2201871,360,106
2201885,391,106
2201894,403,111
2201904,365,111
2201915,409,111
2201922,372,111
2201922,367,111
2201938,396,111
2201955,352,111
2201966,387,111
2201977,373,111
2201987,353,111
2201998,387,111
2202005,344,111
2202018,507,111
2202025,659,111
2202038,659,111
2202049,423,111
2202055,247,111
2202068,334,111
2202072,368,111
2202087,315,111
2202101,351,111
2202105,342,111
2202121,323,111
2202122,367,111
2202138,328,111
2202151,350,111
2202155,366,111
2202172,332,111
2202172,379,111
2202188,360,111
2202204,363,111
2202212,403,111
2202222,363,111
2202233,399,111
2202243,395,111
2202254,373,111
2202255,421,111
2202272,387,111
2202284,417,111
2202288,447,111
2202305,419,111
2202316,473,111
2202322,449,111
2202336,434,111
2202346,435,111
2202354,349,111
2202354,346,111
2202372,309,111
2202380,269,111
2202397,309,111
2202405,272,111
2202418,292,111
2202422,310,111
2202437,274,111
2202449,317,111
2202455,292,111
2202464,284,111
2202472,314,111
2202487,268,111
2202500,300,111
2202505,298,111
2202520,273,111
2202522,317,111
2202537,277,111
2202552,289,111
2202561,303,111
2202572,263,111
2202572,305,111
2202588,284,111
2202603,278,111
2202604,313,111
2202622,273,111
2202634,309,111
2202643,308,111
2202654,283,111
2202662,323,111
2202672,281,111
2202686,287,111
2202695,303,111
2202704,262,111
2202715,305,111
2202722,288,111
2202736,288,111
2202738,330,111
2202755,294,111
2202755,329,111
2202771,324,111
2202788,295,111
2202797,334,111
2202805,292,111
2202818,304,111
2202829,323,111
2202837,283,111
2202849,327,111
2202859,309,111
2202869,301,111
2202880,337,111
2202888,292,111
2202901,322,111
2202911,320,111
2202921,296,111
2202931,340,111
2202939,306,111
2202939,317,111
2202962,336,111
2202971,293,111
2202971,334,111
2202987,310,111
2203003,300,111
2203014,337,111
2203023,295,111
2203034,328,111
2203038,332,111
2203055,300,111
2203055,345,111
2203071,310,111
2203085,321,111
2203088,342,111
2203105,303,111
2203114,347,111
2203123,328,111
2203123,319,111
2203138,363,111
2203154,335,111
2203167,365,111
2203178,362,111
2203187,328,111
2203198,368,111
2203204,326,111
2203219,325,111
2203229,344,111
2203238,304,111
2203238,341,111
2203260,316,111
2203270,298,111
2203281,318,111
2203288,331,111
2203301,591,109
2203311,659,109
2203321,541,109
2203332,237,109
2203338,288,109
2203352,322,109
2203362,329,109
2203371,280,109
2203383,314,109
2203393,292,109
2203403,273,109
2203414,313,109
2203423,274,109
2203435,306,109
2203438,317,109
2203454,289,109
2203465,353,109
2203471,324,109
2203486,337,109
2203496,362,109
2203505,311,109
2203516,352,109
2203527,331,109
2203537,319,109
2203547,373,109
2203554,345,109
2203568,394,109
2203578,419,109
2203587,399,109
2203598,452,109
2203604,411,109
2203619,397,109
2203629,391,109
2203638,296,109
2203650,294,109
2203655,253,109
2203671,228,109
2203681,280,109
2203688,249,109
2203700,297,109
2203712,318,109
2203721,285,109
2203732,327,109
2203738,275,109
2203753,259,109
2203763,276,109
2203771,222,109
2203783,266,109
2203793,263,109
2203804,257,109
2203814,316,109
2203824,274,109
2203835,291,109
2203845,284,109
2203854,217,109
2203866,239,109
2203871,186,109
2203886,181,109
2203896,220,109
2203904,192,109
2203916,258,109
2203923,277,109
2203937,279,109
2203948,338,109
2203955,296,109
2203969,310,109
2203978,310,109
2203987,263,109
2203999,302,109
2204005,270,109
2204020,272,109
2204031,310,109
2204038,277,109
2204050,331,109
2204054,324,109
2204071,297,109
2204073,336,109
2204088,276,109
2204101,289,109
2204112,290,109
2204121,245,109
2204133,296,109
2204141,274,109
2204153,287,109
2204163,339,109
2204171,306,109
2204184,354,109
2204195,351,109
2204204,324,109
2204214,366,109
2204225,320,109
2204235,339,109
2204245,352,109
2204254,316,109
2204265,368,109
2204273,342,109
2204286,343,109
2204286,374,109
2204303,320,109
2204317,356,109
2204326,352,109
2204338,335,109
2204343,379,109
2204358,340,109
2204368,362,109
2204376,371,109
2204376,333,109
2204393,377,109
2204409,347,109
2204420,342,109
2204425,375,109
2204441,323,109
2204451,346,109
2204459,415,104
2204471,648,104
2204481,660,104
2204491,576,104
2204502,237,104
2204512,335,104
2204523,322,104
2204526,357,104
2204542,329,104
2204554,328,104
2204559,368,104
2204568,322,104
2204585,362,104
2204592,363,104
2204604,340,104
2204615,390,104
2204625,353,104
2204636,375,104
2204642,397,104
2204657,364,104
2204666,412,104
2204676,393,104
2204686,396,104
2204693,441,104
2204708,405,104
2204718,455,104
2204726,465,104
2204738,457,104
2204744,519,104
2204758,492,104
2204769,516,107
2204779,532,107
2204790,473,107
2204800,481,107
2204809,412,107
2204819,370,107
2204826,377,107
2204826,310,107
2204851,334,107
2204860,326,107
2204872,304,107
2204876,354,107
2204892,316,107
2204902,340,107
2204909,369,107
2204923,333,107
2204933,377,107
2204943,343,107
2204954,319,107
2204959,334,107
2204964,269,107
2204985,299,107
2204993,297,107
2205005,281,107
2205015,339,107
2205026,315,107
2205026,342,107
2205042,365,107
2205056,317,107
2205065,349,107
2205077,305,107
2205088,280,107
2205093,307,107
2205108,254,107
2205116,290,107
2205126,295,107
2205138,275,107
2205143,334,107
2205159,298,107
2205169,316,107
2205175,331,107
2205190,281,107
2205200,323,107
2205209,301,107
2205221,296,107
2205226,329,107
2205226,280,107
2205242,302,107
2205259,298,107
2205268,267,107
2205276,311,107
2205293,277,107
2205303,305,107
2205310,349,107
2205324,324,107
2205327,374,107
2205342,364,107
2205353,352,107
2205359,382,107
2205368,323,107
2205376,340,107
2205394,322,107
2205394,278,107
2205416,324,107
2205426,289,107
2205426,305,107
2205442,464,109
2205456,658,109
2205460,659,109
2205476,463,109
2205487,222,109
2205492,349,109
2205508,296,109
2205518,323,109
2205527,325,109
2205527,302,109
2205550,364,109
2205560,328,109
2205568,351,109
2205576,377,109
2205590,328,109
2205592,378,109
2205609,348,109
2205621,337,109
2205627,382,109
2205627,328,109
2205652,370,109
2205659,372,109
2205672,346,109
2205676,408,109
2205692,369,109
2205704,395,109
2205711,434,109
2205724,397,109
2205734,465,109
2205742,450,109
2205754,447,109
2205765,488,109
2205775,408,109
2205785,407,109
2205792,366,109
2205792,296,109
2205809,326,109
2205826,263,109
2205837,268,109
2205843,294,109
2205857,241,109
2205867,296,109
2205877,276,109
2205877,268,109
2205893,319,109
2205908,261,109
2205919,296,109
2205925,290,109
2205939,247,109
2205949,301,109
2205959,245,109
2205970,253,109
2205975,277,109
2205991,222,109
2206000,274,109
2206009,247,109
2206021,233,109
2206031,285,109
2206042,229,109
2206053,268,109
2206059,274,109
2206073,237,109
2206076,296,109
2206092,249,109
2206103,260,109
2206110,290,109
2206124,237,109
2206134,295,109
2206143,277,109
2206143,265,109
2206165,318,109
2206175,265,109
2206185,300,109
2206192,300,109
2206206,257,109
2206216,316,109
2206226,274,109
2206238,281,109
2206247,313,109
2206257,256,109
2206268,304,109
2206276,278,109
2206288,256,109
2206292,303,109
2206309,245,109
2206319,280,109
2206327,290,109
2206340,255,109
2206350,317,109
2206359,277,109
2206371,287,109
2206375,320,109
2206391,260,109
2206402,304,109
2206410,276,109
2206410,253,109
2206426,303,109
2206442,246,109
2206453,281,109
2206459,292,109
2206472,252,109
2206483,315,109
2206492,281,109
2206504,295,109
2206514,332,109
2206525,280,109
2206535,326,109
2206543,306,109
2206555,295,109
2206565,343,109
2206576,279,109
2206586,309,109
2206593,316,109
2206593,268,109
2206617,326,109
2206627,288,109
2206637,291,109
2206642,322,109
2206658,265,109
2206668,301,109
2206677,313,109
2206677,497,106
2206699,659,106
2206709,643,106
2206719,229,106
2206727,273,106
2206741,284,106
2206743,328,106
2206760,278,106
2206769,282,106
2206776,314,106
2206791,260,106
2206793,315,106
2206809,315,106
2206819,304,106
2206827,367,106
2206843,322,106
2206853,357,106
2206859,373,106
2206873,331,106
2206884,386,106
2206893,350,106
2206904,355,106
2206912,404,106
2206912,360,106
2206935,424,106
2206943,427,106
2206943,417,106
2206966,485,106
2206976,444,106
2206976,480,106
2206993,489,106
2206993,437,106
2207010,466,106
2207027,395,106
2207038,361,106
2207043,373,106
2207059,302,106
2207069,342,106
2207076,330,106
2207088,305,106
2207100,359,106
2207109,310,106
2207120,339,106
2207127,361,106
2207141,317,106
2207151,377,106
2207159,346,106
2207172,344,106
2207181,380,106
2207192,319,106
2207201,359,106
2207209,349,106
2207222,329,106
2207232,394,106
2207242,352,106
2207254,386,106
2207259,407,106
2207274,356,106
2207283,404,106
2207293,352,106
2207304,335,106
2207309,367,106
2207325,309,106
2207336,363,106
2207342,364,106
2207356,341,106
2207360,404,109
2207376,353,109
2207387,367,109
2207392,370,109
2207407,298,109
2207418,340,109
2207427,296,109
2207438,288,109
2207448,344,109
2207459,303,109
2207465,369,109
2207476,380,109
2207489,358,109
2207500,420,109
2207509,356,109
2207520,352,109
2207527,347,109
2207541,279,109
2207551,336,109
2207559,310,109
2207572,309,109
2207577,369,109
2207577,337,109
2207602,401,109
2207610,389,109
2207622,343,109
2207627,381,109
2207643,309,109
2207654,320,109
2207660,345,109
2207673,296,109
2207685,358,109
2207692,333,109
2207705,322,109
2207710,377,109
2207725,488,108
2207735,659,108
2207743,658,108
2207756,285,108
2207767,278,108
2207777,302,108
2207777,316,108
2207793,338,108
2207808,288,108
2207818,348,108
2207827,321,108
2207838,308,108
2207849,353,108
2207859,297,108
2207869,336,108
2207876,336,108
2207876,303,108
2207900,365,108
2207910,320,108
2207918,343,108
2207927,373,108
2207941,322,108
2207951,383,108
2207960,365,108
2207968,367,108
2207976,433,108
2207992,402,108
2207992,470,108
2208009,492,108
2208023,471,108
2208033,529,126
2208042,462,126
2208054,436,126
2208064,407,126
2208074,308,126
2208084,333,126
2208092,291,126
2208105,277,126
2208115,330,126
2208126,280,126
2208137,324,126
2208142,318,126
2208157,274,126
2208160,323,126
2208176,269,126
2208187,285,126
2208192,309,126
2208207,266,126
2208217,332,126
2208227,312,126
2208238,303,126
2208249,349,126
2208259,290,126
2208270,319,126
2208276,305,126
2208290,264,126
2208293,314,126
2208309,275,126
2208321,299,126
2208327,332,126
2208341,294,126
2208351,342,126
2208361,309,126
2208372,289,126
2208382,312,126
2208392,253,126
2208403,282,126
2208413,287,126
2208424,267,126
2208427,330,126
2208443,304,126
2208455,327,126
2208463,344,126
2208475,284,126
2208477,310,126
2208492,267,126
2208506,246,126
2208516,290,126
2208526,252,126
2208537,301,126
2208543,315,126
2208557,293,126
2208567,341,126
2208576,295,126
2208588,299,126
2208593,315,126
2208609,265,126
2208619,311,126
2208627,291,126
2208640,281,126
2208642,320,126
2208659,271,126
2208666,300,126
2208675,297,126
2208690,264,126
2208690,310,126
2208711,270,126
2208719,279,126
2208732,300,126
2208736,254,126
2208752,300,126
2208762,280,126
2208770,266,126
2208783,306,126
2208787,258,126
2208803,290,126
2208813,289,126
2208820,248,126
2208834,306,126
2208844,275,126
2208853,276,126
2208865,296,126
2208875,245,126
2208886,279,126
2208895,253,126
2208904,235,126
2208904,277,126
2208919,233,126
2208936,266,126
2208947,268,126
2208952,218,126
2208968,318,126
2208978,506,111
2208986,657,111
2208999,508,111
2209003,127,111
2209019,249,111
2209028,260,111
2209037,236,111
2209050,279,111
2209053,238,111
2209070,271,111
2209081,282,111
2209087,256,111
2209087,312,111
2209111,290,111
2209120,309,111
2209127,346,111
2209137,310,111
2209137,359,111
2209162,346,111
2209170,332,111
2209183,376,111
2209193,335,111
2209203,366,111
2209203,380,111
2209219,354,111
2209234,416,111
2209243,397,111
2209253,417,111
2209265,457,111
2209270,418,111
2209286,458,124
2209296,428,124
2209302,382,124
2209317,391,124
2209327,321,124
2209336,332,124
2209347,324,124
2209353,284,124
2209367,334,124
2209378,296,124
2209387,300,124
2209398,327,124
2209404,284,124
2209420,331,124
2209430,314,124
2209436,299,124
2209450,350,124
2209454,311,124
2209471,334,124
2209481,342,124
2209487,308,124
2209487,354,124
2209504,320,124
2209519,330,124
2209533,359,124
2209537,314,124
2209553,359,124
2209563,342,124
2209570,325,124
2209583,367,124
2209594,323,124
2209603,346,124
2209603,357,124
2209620,326,124
2209629,378,124
2209645,348,124
2209652,359,124
2209665,388,124
2209676,345,124
2209686,388,124
2209697,372,124
2209704,352,124
2209704,389,124
2209728,345,124
2209736,369,124
2209736,378,124
2209753,346,124
2209769,398,124
2209778,368,124
2209786,370,124
2209799,399,124
2209810,350,124
2209819,388,124
2209829,373,124
2209836,350,124
2209851,391,124
2209854,348,124
2209869,369,124
2209881,385,124
2209892,353,124
2209902,396,124
2209913,362,124
2209919,358,124
2209929,381,124
2209936,331,124
2209953,371,124
2209962,357,124
2209970,334,124
2209970,377,124
2209986,331,124
2210003,341,124
2210015,449,114
2210020,657,114
2210036,659,114
2210037,517,114
2210053,229,114
2210067,355,114
2210071,325,114
2210086,354,114
2210097,341,114
2210103,317,114
2210117,362,114
2210125,316,114
2210136,342,114
2210148,358,114
2210154,322,114
2210169,376,114
2210170,351,114
2210186,360,114
2210186,396,114
2210204,351,114
2210220,391,114
2210229,377,114
2210237,355,114
2210250,407,114
2210253,369,114
2210270,400,114
2210282,428,114
2210292,407,114
2210303,470,114
2210312,454,114
2210320,456,123
2210333,480,123
2210343,407,123
2210352,404,123
2210364,352,123
2210372,299,123
2210372,325,123
2210395,272,123
2210403,294,123
2210412,310,123
2210419,272,123
2210435,321,123
2210446,292,123
2210453,290,123
2210467,324,123
2210474,275,123
2210486,314,123
2210497,306,123
2210503,283,123
2210517,328,123
2210528,283,123
2210536,303,123
2210549,313,123
2210553,273,123
2210569,321,123
2210574,294,123
2210587,295,123
2210587,329,123
2210610,283,123
2210620,321,123
2210631,313,123
2210636,288,123
2210651,332,123
2210662,289,123
2210670,308,123
2210682,321,123
2210692,276,123
2210702,324,123
2210713,293,123
2210721,289,123
2210733,323,123
2210743,276,123
2210752,315,123
2210764,308,123
2210770,278,123
2210770,325,123
2210786,277,123
2210803,296,123
2210816,312,123
2210826,269,123
2210836,318,123
2210846,290,123
2210853,288,123
2210867,321,123
2210877,272,123
2210886,309,123
2210898,301,123
2210903,274,123
2210903,321,123
2210927,280,123
2210936,299,123
2210936,316,123
2210953,272,123
2210969,319,123
2210979,291,123
2210987,286,123
2210987,324,123
2211004,274,123
2211021,311,123
2211029,307,123
2211036,281,123
2211051,329,123
2211062,286,123
2211070,306,123
2211070,323,123
2211086,281,123
2211103,328,123
2211103,299,123
2211120,301,123
2211134,345,123
2211144,295,123
2211153,328,123
2211164,322,123
2211175,288,123
2211185,332,123
2211195,288,123
2211203,305,123
2211203,323,123
2211226,280,123
2211236,327,123
2211237,290,123
2211255,350,123
2211267,621,108
2211277,658,108
2211287,553,108
2211298,220,108
2211308,264,108
2211318,334,108
2211329,275,108
2211336,292,108
2211349,311,108
2211360,268,108
2211370,317,108
2211380,294,108
2211386,287,108
2211386,331,108
2211411,285,108
2211420,324,108
2211429,324,108
2211436,301,108
2211452,352,108
2211462,314,108
2211470,336,108
2211482,360,108
2211493,321,108
2211503,375,108
2211514,358,108
2211520,362,108
2211529,418,108
2211544,387,108
2211554,428,108
2211565,432,108
2211575,402,122
2211586,441,122
2211596,378,122
2211603,363,122
2211616,355,122
2211627,288,122
2211637,321,122
2211637,290,122
2211654,277,122
2211663,314,122
2211669,264,122
2211687,296,122
2211687,291,122
2211709,256,122
2211719,306,122
2211729,266,122
2211737,281,122
2211749,303,122
2211760,258,122
2211770,304,122
2211781,281,122
2211787,267,122
2211787,306,122
2211811,256,122
2211820,288,122
2211830,284,122
2211837,253,122
2211837,303,122
2211863,263,122
2211870,278,122
2211870,300,122
2211887,254,122
2211903,301,122
2211914,280,122
2211920,268,122
2211935,308,122
2211944,260,122
2211953,294,122
2211953,297,122
2211970,267,122
2211986,314,122
2211997,280,122
2212003,292,122
2212003,311,122
2212026,265,122
2212037,305,122
2212037,282,122
2212054,271,122
2212067,312,122
2212079,270,122
2212086,307,122
2212099,313,122
2212109,286,122
2212119,336,122
2212130,299,122
2212136,309,122
2212150,328,122
2212161,285,122
2212170,329,122
2212181,309,122
2212187,303,122
2212201,350,122
2212211,305,122
2212219,341,122
2212233,340,122
2212243,311,122
2212253,356,122
2212262,315,122
2212270,327,122
2212283,350,122
2212287,309,122
2212303,355,122
2212315,332,122
2212320,319,122
2212334,362,122
2212345,327,122
2212353,357,122
2212366,355,122
2212377,318,122
2212386,360,122
2212397,316,122
2212403,324,122
2212417,348,122
2212427,303,122
2212437,348,122
2212437,331,122
2212454,307,122
2212468,404,109
2212478,603,109
2212486,659,109
2212499,618,109
2212510,205,109
2212520,322,109
2212531,319,109
2212536,318,109
2212550,340,109
2212561,295,109
2212569,339,109
2212581,331,109
2212586,319,109
2212601,365,109
2212611,328,109
2212620,360,109
2212632,368,109
2212642,340,109
2212653,393,109
2212664,362,109
2212670,375,109
2212670,405,109
2212686,364,109
2212703,416,109
2212714,408,109
2212720,403,109
2212731,456,109
2212746,430,109
2212753,471,109
2212767,489,109
2212776,459,110
2212787,505,110
2212787,463,110
2212803,446,110
2212813,439,110
2212821,366,110
2212837,383,110
2212837,350,110
2212856,323,110
2212868,361,110
2212870,316,110
2212886,343,110
2212900,345,110
2212910,311,110
2212920,357,110
2212920,326,110
2212936,332,110
2212950,360,110
2212953,318,110
2212969,359,110
2212982,342,110
2212992,324,110
2213002,363,110
2213012,319,110
2213019,344,110
2213033,352,110
2213037,320,110
2213053,364,110
2213053,333,110
2213073,337,110
2213084,362,110
2213094,317,110
2213103,355,110
2213115,337,110
2213125,318,110
2213136,358,110
2213145,315,110
2213153,342,110
2213165,350,110
2213177,317,110
2213187,368,110
2213187,336,110
2213203,340,110
2213219,367,110
2213228,319,110
2213237,357,110
2213248,339,110
2213253,320,110
2213269,364,110
2213279,323,110
2213287,347,110
2213300,356,110
2213303,322,110
2213320,367,110
2213325,334,110
2213336,335,110
2213351,365,110
2213354,320,110
2213369,360,110
2213382,345,110
2213392,325,110
2213402,369,110
2213413,324,110
2213420,345,110
2213434,356,110
2213443,327,110
2213452,378,110
2213464,343,110
2213473,343,110
2213473,366,110
2213487,314,110
2213503,349,110
2213515,333,110
2213525,312,110
2213535,354,110
2213546,312,110
2213553,330,110
2213553,341,110
2213570,448,102
2213586,659,102
2213597,659,102
2213603,378,102
2213618,267,102
2213620,305,102
2213636,341,102
2213649,319,102
2213653,297,102
2213670,337,102
2213680,292,102
2213686,314,102
2213700,322,102
2213710,284,102
2213720,333,102
2213731,310,102
2213736,317,102
2213752,354,102
2213762,312,102
2213770,354,102
2213782,343,102
2213793,324,102
2213803,368,102
2213813,330,102
2213820,363,102
2213834,385,102
2213836,361,102
2213853,421,102
2213865,402,102
2213872,412,102
2213886,443,102
2213894,389,102
2213903,410,102
2213915,365,102
2213926,312,102
2213936,325,102
2213947,261,102
2213953,272,102
2213967,274,102
2213973,236,102
2213986,284,102
2213998,252,102
2214003,255,102
2214019,288,102
2214028,244,102
2214037,285,102
2214037,274,102
2214055,254,102
2214070,300,102
2214080,257,102
2214086,276,102
2214100,286,102
2214111,248,102
2214120,291,102
2214131,260,102
2214136,261,102
2214152,295,102
2214154,252,102
2214170,292,102
2214183,282,102
2214186,260,102
2214203,305,102
2214203,260,102
2214220,283,102
2214234,296,102
2214237,256,102
2214254,305,102
2214264,276,102
2214271,277,102
2214281,312,102
2214296,267,102
2214303,306,102
2214316,297,102
2214326,274,102
2214337,317,102
2214346,272,102
2214353,295,102
2214367,306,102
2214378,269,102
2214387,317,102
2214399,290,102
2214409,289,102
2214419,323,102
2214429,278,102
2214436,318,102
2214449,309,102
2214453,287,102
2214470,334,102
2214480,295,102
2214486,315,102
2214486,327,102
2214502,289,102
2214520,335,102
2214532,306,102
2214536,308,102
2214552,341,102
2214552,299,102
2214570,336,102
2214583,329,102
2214594,306,102
2214604,348,102
2214614,307,102
2214620,328,102
2214635,339,102
2214637,303,102
2214654,357,102
2214665,336,102
2214669,332,102
2214685,360,102
2214696,312,102
2214703,340,102
2214716,327,102
2214727,303,102
2214736,343,102
2214747,301,102
2214753,321,102
2214767,332,102
2214777,284,102
2214786,418,103
2214790,642,103
2214804,658,103
2214819,485,103
2214830,186,103
2214837,310,103
2214837,304,103
2214860,271,103
2214869,308,103
2214881,269,103
2214886,291,103
2214901,306,103
2214903,272,103
2214920,317,103
2214933,294,103
2214939,296,103
2214953,327,103
2214963,292,103
2214970,328,103
2214983,319,103
2214986,305,103
2215003,348,103
2215014,315,103
2215025,341,103
2215034,360,103
2215036,337,103
2215053,391,103
2215065,378,103
2215074,390,103
2215086,423,103
2215096,386,103
2215103,417,103
2215117,396,103
2215128,355,103
2215137,362,103
2215148,297,103
2215158,297,103
2215168,296,103
2215178,255,103
2215187,296,103
2215199,269,103
2215209,272,103
2215219,305,103
2215220,265,103
2215237,302,103
2215250,297,103
2215253,281,103
2215269,323,103
2215281,286,103
2215286,301,103
2215302,312,103
2215311,276,103
2215319,318,103
2215332,294,103
2215342,296,103
2215353,329,103
2215363,292,103
2215369,324,103
2215384,316,103
2215387,296,103
2215403,332,103
2215414,293,103
2215421,314,103
2215435,322,103
2215437,289,103
2215453,331,103
2215466,306,103
2215476,306,103
2215486,340,103
2215497,304,103
2215502,337,103
2215517,334,103
2215528,313,103
2215536,353,103
2215547,313,103
2215553,332,103
2215569,344,103
2215579,308,103
2215586,349,103
2215599,326,103
2215610,327,103
2215620,355,103
2215630,313,103
2215637,343,103
2215651,338,103
2215662,315,103
2215670,354,103
2215682,319,103
2215687,335,103
2215702,353,103
2215704,318,103
2215720,357,103
2215733,338,103
2215743,335,103
2215753,361,103
2215764,322,103
2215770,363,103
2215784,358,103
2215794,335,103
2215803,376,103
2215815,334,103
2215823,350,103
2215835,360,103
2215846,321,103
2215853,358,103
2215866,334,103
2215876,332,103
2215886,352,103
2215897,330,103
2215903,547,102
2215903,659,102
2215920,658,102
2215936,339,102
2215949,262,102
2215959,346,102
2215969,353,102
2215979,318,102
2215986,358,102
2215999,335,102
2216003,338,102
2216020,375,102
2216029,338,102
2216037,375,102
2216052,376,102
2216061,353,102
2216069,399,102
2216081,368,102
2216092,386,102
2216102,404,102
2216104,372,102
2216120,414,102
2216133,393,102
2216143,397,102
2216153,437,102
2216164,410,102
2216174,458,102
2216185,469,102
2216195,458,102
2216203,498,102
2216215,461,101
2216226,467,101
2216236,454,101
2216237,386,101
2216253,395,101
2216267,347,101
2216270,330,101
2216286,351,101
2216297,311,101
2216303,344,101
2216318,335,101
2216328,307,101
2216336,341,101
2216348,299,101
2216359,310,101
2216369,324,101
2216379,292,101
2216386,335,101
2216401,313,101
2216403,315,101
2216419,344,101
2216431,300,101
2216436,326,101
2216451,320,101
2216453,298,101
2216469,342,101
2216482,309,101
2216487,327,101
2216503,346,101
2216513,310,101
2216520,349,101
2216533,322,101
2216537,312,101
2216553,336,101
2216564,290,101
2216570,319,101
2216585,312,101
2216595,293,101
2216603,338,101
2216616,306,101
2216625,319,101
2216636,334,101
2216646,297,101
2216653,336,101
2216667,309,101
2216677,303,101
2216686,336,101
2216686,299,101
2216703,334,101
2216718,331,101
2216728,307,101
2216737,347,101
2216749,309,101
2216759,322,101
2216770,337,101
2216779,299,101
2216786,337,101
2216801,318,101
2216811,314,101
2216820,345,101
2216831,306,101
2216841,345,101
2216852,348,101
2216862,319,101
2216869,358,101
2216882,320,101
2216893,328,101
2216903,344,101
2216903,307,101
2216920,347,101
2216934,325,101
2216944,319,101
2216953,345,101
2216953,292,101
2216975,434,105
2216985,658,105
2216996,659,105
2217003,435,105
2217016,208,105
2217026,313,105
2217036,332,105
2217046,287,105
2217053,325,105
2217067,304,105
2217072,298,105
2217086,329,105
2217098,289,105
2217108,322,105
2217119,326,105
2217129,303,105
2217137,348,105
2217149,315,105
2217160,332,105
2217170,349,105
2217180,311,105
2217186,351,105
2217200,335,105
2217203,335,105
2217219,376,105
2217232,348,105
2217237,392,105
2217253,401,105
2217262,386,105
2217271,434,105
2217276,399,105
2217287,408,105
2217303,411,105
2217313,345,105
2217320,353,105
2217320,304,105
2217345,274,105
2217354,294,105
2217354,244,105
2217370,271,105
2217386,268,105
2217396,244,105
2217402,287,105
2217416,251,105
2217427,266,105
2217436,285,105
2217448,247,105
2217453,291,105
2217453,270,105
2217478,264,105
2217486,300,105
2217486,259,105
2217509,288,105
2217519,284,105
2217530,257,105
2217536,297,105
2217550,262,105
2217560,276,105
2217569,295,105
2217581,260,105
2217591,304,105
2217602,281,105
2217611,274,105
2217621,311,105
2217621,269,105
2217642,298,105
2217652,298,105
2217663,271,105
2217670,314,105
2217683,282,105
2217693,292,105
2217702,313,105
2217714,276,105
2217722,314,105
2217735,295,105
2217745,286,105
2217753,320,105
2217765,281,105
2217775,312,105
2217786,314,105
2217796,288,105
2217803,332,105
2217817,300,105
2217827,311,105
2217837,332,105
2217837,294,105
2217854,334,105
2217868,314,105
2217870,303,105
2217887,337,105
2217899,298,105
2217909,329,105
2217919,331,105
2217925,307,105
2217937,349,105
2217950,314,105
2217953,324,105
2217970,342,105
2217982,311,105
2217987,357,105
2217987,335,105
2218011,325,105
2218020,358,105
2218020,311,105
2218043,338,105
2218053,334,105
2218063,311,105
2218070,351,105
2218083,317,105
2218094,327,105
2218103,337,105
2218114,359,105
2218124,628,106
2218134,659,106
2218137,571,106
2218153,255,106
2218165,285,106
2218170,336,106
2218186,323,106
2218197,292,106
2218203,335,106
2218217,301,106
2218226,310,106
2218237,332,106
2218248,296,106
2218253,338,106
2218269,323,106
2218279,316,106
2218287,355,106
2218299,315,106
2218303,343,106
2218320,345,106
2218322,320,106
2218337,364,106
2218351,336,106
2218360,354,106
2218370,386,106
2218380,358,106
2218386,409,106
2218402,399,106
2218413,392,106
2218420,428,106
2218433,386,106
2218443,404,106
2218453,383,106
2218453,330,106
2218470,344,106
2218484,288,106
2218495,282,106
2218503,294,106
2218516,251,106
2218525,289,106
2218535,269,106
2218546,257,106
2218553,292,106
2218566,253,106
2218576,281,106
2218586,284,106
2218597,259,106
2218603,303,106
2218617,268,106
2218628,277,106
2218637,300,106
2218649,260,106
2218654,300,106
2218669,280,106
2218679,271,106
2218687,309,106
2218699,268,106
2218703,297,106
2218720,302,106
2218730,273,106
2218737,316,106
2218751,282,106
2218761,291,106
2218769,313,106
2218781,274,106
2218787,315,106
2218802,300,106
2218803,290,106
2218820,326,106
2218833,287,106
2218843,315,106
2218853,320,106
2218864,289,106
2218870,336,106
2218876,306,106
2218895,313,106
2218903,333,106
2218915,292,106
2218926,329,106
2218935,316,106
2218946,301,106
2218953,340,106
2218966,301,106
2218977,327,106
2218986,333,106
2218997,303,106
2219003,345,106
2219018,318,106
2219020,325,106
2219037,343,106
2219037,309,106
2219059,357,106
2219069,345,106
2219080,330,106
2219086,368,106
2219100,320,106
2219110,341,106
2219119,343,106
2219131,313,106
2219141,354,106
2219151,321,106
2219162,326,106
2219170,338,106
2219182,304,106
2219192,500,106
2219203,659,106
2219213,658,106
2219220,330,106
2219234,228,106
2219244,330,106
2219253,336,106
2219264,300,106
2219270,342,106
2219276,312,106
2219295,320,106
2219303,345,106
2219315,308,106
2219326,349,106
2219336,337,106
2219346,331,106
2219354,372,106
2219354,342,106
2219370,372,106
2219386,384,106
2219398,360,106
2219403,406,106
2219403,384,106
2219428,398,106
2219437,428,106
2219437,401,106
2219454,450,106
2219469,455,106
2219470,450,106
2219486,494,106
2219486,456,106
2219503,473,106
2219520,460,106
2219520,401,106
2219536,414,106
2219552,362,106
2219553,352,106
2219570,368,106
2219579,325,106
2219587,360,106
2219603,343,106
2219613,325,106
2219620,360,106
2219634,318,106
2219636,340,106
2219653,349,106
2219664,321,106
2219670,363,106
2219685,338,106
2219695,341,106
2219703,363,106
2219716,321,106
2219726,354,106
2219736,338,106
2219747,325,106
2219753,366,106
2219767,332,106
2219777,354,106
2219786,364,106
2219798,334,106
2219808,373,106
2219818,339,106
2219821,333,106
2219836,353,106
2219849,308,106
2219860,341,106
2219869,327,106
2219869,312,106
2219887,352,106
2219901,317,106
2219911,339,106
2219920,348,106
2219931,315,106
2219937,354,106
2219937,323,106
2219962,327,106
2219970,353,106
2219982,311,106
2219993,350,106
2220003,349,106
2220013,340,106
2220020,369,106
2220025,330,106
2220044,342,106
2220053,344,106
2220065,309,106
2220075,347,106
2220085,318,106
2220096,320,106
2220103,346,106
2220116,302,106
2220124,330,106
2220137,426,112
2220137,657,112
2220154,659,112
2220163,423,112
2220172,224,112
2220186,332,112
2220199,305,112
2220203,335,112
2220219,309,112
2220220,309,112
2220237,335,112
2220250,294,112
2220253,329,112
2220270,316,112
2220281,300,112
2220291,341,112
2220300,309,112
2220311,336,112
2220320,348,112
2220324,317,112
2220342,361,112
2220353,335,112
2220362,338,112
2220369,369,112
2220383,338,112
2220393,384,112
2220403,391,112
2220414,386,112
2220424,434,112
2220434,404,112
2220444,426,112
2220453,427,112
2220465,373,112
2220474,380,112
2220486,320,112
2220496,293,112
2220503,307,112
2220517,256,112
2220521,285,112
2220537,273,112
2220537,253,112
2220553,292,112
2220568,255,112
2220570,275,112
2220586,288,112
2220599,256,112
2220603,298,112
2220620,274,112
2220629,274,112
2220637,302,112
2220650,262,112
2220661,293,112
2220670,283,112
2220680,261,112
2220687,301,112
2220701,266,112
2220703,284,112
2220720,300,112
2220732,265,112
2220738,306,112
2220752,282,112
2220762,279,112
2220770,306,112
2220784,261,112
2220787,294,112
2220803,287,112
2220814,266,112
2220824,309,112
2220834,276,112
2220838,298,112
2220854,311,112
2220866,276,112
2220876,318,112
2220886,291,112
2220896,286,112
2220904,316,112
2220904,274,112
2220920,307,112
2220938,302,112
2220948,285,112
2220953,329,112
2220968,296,112
2220979,313,112
2220986,326,112
2220999,292,112
2221009,333,112
2221020,307,112
2221021,305,112
2221038,337,112
2221051,294,112
2221058,334,112
2221069,338,112
2221081,318,112
2221086,358,112
2221102,320,112
2221113,328,112
2221120,340,112
2221133,300,112
2221141,341,112
2221152,317,112
2221164,313,112
2221169,341,112
2221185,297,112
2221189,328,112
2221203,461,113
2221203,658,113
2221221,659,113
2221236,362,113
2221246,244,113
2221253,340,113
2221266,296,113
2221275,327,113
2221286,304,113
2221297,297,113
2221303,332,113
2221317,292,113
2221328,327,113
2221336,326,113
2221348,306,113
2221358,350,113
2221369,320,113
2221379,336,113
2221386,353,113
2221400,320,113
2221404,362,113
2221419,341,113
2221430,341,113
2221438,379,113
2221438,351,113
2221461,396,113
2221470,404,113
2221482,392,113
2221492,440,113
2221502,406,113
2221512,419,113
2221520,431,113
2221533,380,113
2221539,400,113
2221553,348,113
2221564,319,113
2221570,333,113
2221584,279,113
2221595,305,113
2221603,296,113
2221615,269,113
2221625,308,113
2221636,272,113
2221645,285,113
2221652,301,113
2221667,262,113
2221677,304,113
2221687,285,113
2221687,280,113
2221703,311,113
2221718,269,113
2221728,298,113
2221736,291,113
2221748,262,113
2221753,300,113
2221769,266,113
2221779,278,113
2221787,296,113
2221800,259,113
2221810,301,113
2221821,282,113
2221831,269,113
2221839,302,113
2221852,260,113
2221861,288,113
2221869,288,113
2221881,261,113
2221892,305,113
2221903,273,113
2221913,288,113
2221920,308,113
2221934,271,113
2221943,309,113
2221953,289,113
2221964,281,113
2221970,315,113
2221985,275,113
2221995,305,113
2222003,308,113
2222015,284,113
2222026,326,113
2222036,290,113
2222046,300,113
2222053,320,113
2222053,280,113
2222070,320,113
2222087,304,113
2222098,295,113
2222104,331,113
2222112,293,113
2222129,317,113
2222137,331,113
2222149,310,113
2222160,352,113
2222170,321,113
2222179,324,113
2222186,340,113
2222200,298,113
2222211,335,113
2222220,320,113
2222231,309,113
2222241,343,113
2222252,305,113
2222262,319,113
2222270,382,113
2222282,605,113
2222293,659,113
2222303,529,113
2222313,195,113
2222320,307,113
2222334,295,113
2222344,325,113
2222353,309,113
2222365,304,113
2222371,341,113
2222371,303,113
2222396,328,113
2222404,334,113
2222415,307,113
2222426,352,113
2222436,328,113
2222446,342,113
2222454,370,113
2222467,337,113
2222475,382,113
2222486,371,113
2222498,364,113
2222508,402,113
2222518,367,113
2222529,400,113
2222537,416,113
2222549,401,113
2222553,455,113
2222569,432,113
2222573,447,113
2222587,463,113
2222587,417,113
2222610,426,113
2222620,375,113
2222620,339,113
2222640,354,113
2222652,305,113
2222662,329,113
2222670,333,113
2222683,309,113
2222693,354,113
2222703,323,113
2222703,330,113
2222719,351,113
2222734,311,113
2222740,348,113
2222753,333,113
2222765,326,113
2222775,365,113
2222785,330,113
2222796,358,113
2222803,364,113
2222816,334,113
2222825,374,113
2222837,345,113
2222847,353,113
2222853,377,113
2222862,341,113
2222870,377,113
2222886,360,113
2222898,343,113
2222903,369,113
2222919,326,113
2222928,348,113
2222936,349,113
2222949,321,113
2222959,366,113
2222970,336,113
2222981,344,113
2222986,372,113
2223000,333,113
2223004,367,113
2223020,349,113
2223032,331,113
2223041,375,113
2223052,343,113
2223063,363,113
2223069,371,113
2223083,334,113
2223093,366,113
2223103,331,113
2223103,333,113
2223120,353,113
2223134,308,113
2223145,340,113
2223153,324,113
2223165,300,113
2223175,406,118
2223186,618,118
2223196,659,118
2223203,563,118
2223217,199,118
2223227,327,118
2223236,322,118
2223248,314,118
2223253,338,118
2223268,297,118
2223278,334,118
2223286,323,118
2223298,311,118
2223303,352,118
2223319,314,118
2223330,339,118
2223336,350,118
2223350,322,118
2223354,367,118
2223369,343,118
2223380,348,118
2223387,376,118
2223387,341,118
2223402,380,118
2223420,376,118
2223432,370,118
2223442,423,118
2223452,402,118
2223463,434,118
2223469,450,118
2223476,420,119
2223487,455,119
2223503,408,119
2223515,376,119
2223522,368,119
2223534,303,119
2223541,321,119
2223554,303,119
2223563,282,119
2223576,321,119
2223585,284,119
2223596,301,119
2223603,311,119
2223617,274,119
2223627,313,119
2223636,283,119
2223647,284,119
2223653,312,119
2223669,271,119
2223679,307,119
2223686,298,119
2223699,275,119
2223704,313,119
2223720,274,119
2223729,293,119
2223736,307,119
2223750,278,119
2223761,321,119
2223769,295,119
2223782,296,119
2223787,324,119
2223802,281,119
2223803,312,119
2223819,298,119
2223819,276,119
2223843,314,119
2223853,276,119
2223854,297,119
2223870,308,119
2223884,275,119
2223887,316,119
2223903,290,119
2223915,288,119
2223920,315,119
2223935,273,119
2223945,304,119
2223953,296,119
2223966,274,119
2223976,316,119
2223987,281,119
2223997,299,119
2224003,314,119
2224017,279,119
2224027,318,119
2224036,293,119
2224047,302,119
2224058,338,119
2224069,293,119
2224079,326,119
2224086,315,119
2224100,287,119
2224103,324,119
2224120,288,119
2224129,304,119
2224136,317,119
2224151,281,119
2224161,321,119
2224170,285,119
2224182,328,119
2224192,575,120
2224202,658,120
2224204,594,120
2224220,220,120
2224233,255,120
2224244,329,120
2224253,279,120
2224263,293,120
2224270,307,120
2224277,272,120
2224294,311,120
2224302,289,120
2224312,291,120
2224318,325,120
2224334,289,120
2224342,326,120
2224349,323,120
2224362,304,120
2224377,347,120
2224387,312,120
2224396,328,120
2224407,350,120
2224418,319,120
2224428,369,120
2224429,360,120
2224446,368,120
2224459,416,120
2224468,387,120
2224479,424,120
2224490,422,120
2224495,396,120
2224510,425,120
2224519,366,120
2224528,353,120
2224540,341,120
2224551,287,120
2224562,314,120
2224572,285,120
2224579,276,120
2224592,308,120
2224602,267,120
2224612,298,120
2224614,296,120
2224628,271,120
2224643,312,120
2224646,279,120
2224662,292,120
2224674,309,120
2224685,271,120
2224695,313,120
2224706,293,120
2224712,286,120
2224726,316,120
2224736,275,120
2224745,305,120
2224756,300,120
2224767,275,120
2224777,315,120
2224787,283,120
2224795,295,120
2224808,308,120
2224813,273,120
2224828,310,120
2224837,291,120
2224846,285,120
2224859,319,120
2224869,282,120
2224879,310,120
2224890,304,120
2224896,280,120
2224910,318,120
2224916,284,120
2224928,295,120
2224941,311,120
2224952,277,120
2224962,314,120
2224964,294,120
2224979,285,120
2224993,318,120
2225000,279,120
2225013,309,120
2225020,306,120
2225029,282,120
2225044,319,120
2225054,287,120
2225062,299,120
2225075,317,120
2225084,285,120
2225095,322,120
2225106,302,120
2225112,304,120
2225125,342,120
2225130,303,120
2225147,326,120
2225157,322,120
2225162,291,120
2225178,329,120
2225188,295,120
2225196,307,120
2225196,328,120
2225219,288,120
2225228,325,120
2225239,293,120
2225245,324,120
2225245,580,117
2225269,659,117
2225279,585,117
2225279,211,117
2225296,254,117
2225296,333,117
2225322,292,117
2225329,303,117
2225329,323,117
2225352,291,117
2225362,328,117
2225370,313,117
2225379,309,117
2225393,345,117
2225396,316,117
2225412,351,117
2225424,361,117
2225434,341,117
2225444,382,117
2225455,353,117
2225463,363,117
2225475,387,117
2225486,354,117
2225496,397,117
2225496,389,117
2225512,391,117
2225526,437,117
2225530,412,117
2225546,446,117
2225558,448,117
2225562,417,117
2225577,441,117
2225588,385,117
2225596,361,117
2225596,353,117
2225619,296,117
2225629,321,117
2225639,305,117
2225647,295,117
2225659,327,117
2225669,292,117
2225678,319,117
2225691,316,117
2225696,285,117
2225712,324,117
2225721,296,117
2225729,299,117
2225729,318,117
2225746,281,117
2225762,322,117
2225773,308,117
2225779,301,117
2225779,337,117
2225804,299,117
2225812,325,117
2225824,330,117
2225829,304,117
2225844,344,117
2225855,319,117
2225863,324,117
2225870,343,117
2225881,305,117
2225896,337,117
2225906,323,117
2225912,315,117
2225926,352,117
2225937,321,117
2225946,350,117
2225957,362,117
2225968,339,117
2225978,382,117
2225988,356,117
2225995,363,117
2226009,384,117
2226019,348,117
2226029,381,117
2226040,368,117
2226046,353,117
2226060,398,117
2226065,370,117
2226079,390,117
2226091,394,117
2226101,362,117
2226111,390,117
2226122,358,117
2226129,362,117
2226142,380,117
2226153,341,117
2226162,374,117
2226173,355,117
2226178,329,117
2226194,412,120
2226196,609,120
2226212,659,120
2226225,643,120
2226229,232,120
2226245,328,120
2226255,340,120
2226262,334,120
2226276,354,120
2226279,315,120
2226295,350,120
2226295,335,120
2226313,322,120
2226327,359,120
2226338,324,120
2226346,347,120
2226346,364,120
2226363,342,120
2226379,387,120
2226388,368,120
2226396,377,120
2226396,399,120
2226419,362,120
2226428,400,120
2226441,393,120
2226447,384,120
2226461,431,120
2226471,408,120
2226479,441,120
2226491,457,120
2226502,428,120
2226512,458,120
2226522,411,120
2226529,379,120
2226529,372,120
2226553,309,120
2226561,328,120
2226574,310,120
2226579,292,120
2226594,333,120
2226604,296,120
2226612,316,120
2226625,319,120
2226629,288,120
2226645,321,120
2226656,292,120
2226662,294,120
2226676,320,120
2226679,285,120
2226697,312,120
2226707,305,120
2226712,289,120
2226728,316,120
2226737,283,120
2226746,297,120
2226758,310,120
2226768,284,120
2226779,319,120
2226789,302,120
2226795,303,120
2226810,323,120
2226820,288,120
2226829,311,120
2226840,300,120
2226851,280,120
2226861,312,120
2226872,281,120
2226878,298,120
2226891,309,120
2226896,284,120
2226912,321,120
2226922,299,120
2226928,297,120
2226943,320,120
2226954,284,120
2226962,310,120
2226974,304,120
2226981,288,120
2226994,321,120
2226996,292,120
2227012,307,120
2227025,316,120
2227036,286,120
2227046,317,120
2227046,302,120
2227064,310,120
2227076,330,120
2227079,295,120
2227097,320,120
2227108,307,120
2227113,288,120
2227128,317,120
2227133,286,120
2227146,301,120
2227158,310,120
2227169,281,120
2227179,308,120
2227189,318,120
2227196,518,122
2227210,659,122
2227220,616,122
2227229,228,122
2227241,266,122
2227246,293,122
2227246,310,122
2227271,276,122
2227279,293,122
2227292,304,122
2227302,271,122
2227312,308,122
2227323,292,122
2227329,295,122
2227329,324,122
2227353,295,122
2227363,328,122
2227370,326,122
2227380,310,122
2227380,344,122
2227406,312,122
2227412,333,122
2227425,351,122
2227436,328,122
2227445,375,122
2227447,369,122
2227463,379,122
2227477,419,122
2227487,387,122
2227495,420,122
2227508,411,121
2227518,380,121
2227528,393,121
2227539,329,121
2227547,320,121
2227558,312,121
2227569,267,121
2227579,297,121
2227590,274,121
2227596,272,121
2227610,302,121
2227621,263,121
2227629,295,121
2227641,288,121
2227647,271,121
2227662,307,121
2227663,274,121
2227679,291,121
2227679,302,121
2227703,271,121
2227712,309,121
2227723,286,121
2227729,286,121
2227743,313,121
2227754,276,121
2227762,309,121
2227767,303,121
2227778,283,121
2227795,322,121
2227795,288,121
2227813,303,121
2227825,317,121
2227836,285,121
2227846,324,121
2227857,301,121
2227867,299,121
2227877,329,121
2227887,291,121
2227895,325,121
2227908,322,121
2227918,301,121
2227928,336,121
2227939,303,121
2227947,316,121
2227960,328,121
2227970,293,121
2227979,333,121
2227991,314,121
2227996,312,121
2227996,341,121
2228013,305,121
2228029,334,121
2228041,327,121
2228047,306,121
2228061,344,121
2228073,311,121
2228078,326,121
2228093,339,121
2228103,305,121
2228113,344,121
2228117,321,121
2228130,319,121
2228143,346,121
2228147,308,121
2228162,339,121
2228175,343,121
2228185,328,121
2228195,361,121
2228206,328,121
2228212,336,121
2228226,342,121
2228236,307,121
2228245,342,121
2228256,319,121
2228267,312,121
2228278,340,121
2228288,301,121
2228296,316,121
2228309,391,121
2228312,613,116
2228329,659,116
2228339,478,116
2228347,208,116
2228360,310,116
2228370,289,116
2228378,313,116
2228391,292,116
2228401,283,116
2228411,315,116
2228421,277,116
2228428,304,116
2228442,304,116
2228447,286,116
2228462,329,116
2228473,302,116
2228479,320,116
2228492,341,116
2228503,309,116
2228512,349,116
2228524,331,116
2228529,329,116
2228545,364,116
2228547,333,116
2228562,375,116
2228575,386,116
2228586,378,116
2228595,424,116
2228606,399,116
2228612,415,116
2228627,424,116
2228637,374,116
2228646,383,116
2228647,331,116
2228662,299,116
2228678,311,116
2228678,264,116
2228696,293,116
2228708,290,116
2228719,266,116
2228729,304,116
2228740,273,116
2228748,280,116
2228760,298,116
2228767,266,116
2228779,304,116
2228779,285,116
2228801,281,116
2228811,316,116
2228822,280,116
2228829,309,116
2228829,309,116
2228853,289,116
2228862,331,116
2228871,302,116
2228878,313,116
2228894,332,116
2228904,297,116
2228912,335,116
2228924,313,116
2228935,304,116
2228944,336,116
2228955,295,116
2228965,320,116
2228976,321,116
2228979,299,116
2228996,337,116
2228996,308,116
2229013,322,116
2229026,339,116
2229037,305,116
2229047,343,116
2229058,327,116
2229062,320,116
2229078,350,116
2229089,315,116
2229096,342,116
2229109,340,116
2229120,316,116
2229129,353,116
2229140,321,116
2229148,331,116
2229148,349,116
2229164,314,116
2229180,351,116
2229180,343,116
2229202,345,116
2229211,378,116
2229222,339,116
2229229,364,116
2229243,355,116
2229248,327,116
2229262,363,116
2229271,335,116
2229281,345,116
2229281,367,116
2229296,334,116
2229313,364,116
2229324,361,116
2229329,529,116
2229345,659,116
2229356,659,116
2229363,347,116
2229371,294,116
2229380,343,116
2229395,378,116
2229406,342,116
2229413,350,116
2229427,370,116
2229437,336,116
2229446,370,116
2229458,355,116
2229469,348,116
2229479,381,116
2229489,346,116
2229495,379,116
2229510,386,116
2229515,365,116
2229529,407,116
2229529,380,116
2229549,391,116
2229561,411,116
2229571,377,116
2229578,422,116
2229592,413,116
2229602,417,116
2229612,465,116
2229622,434,116
2229629,463,116
2229643,462,116
2229654,419,116
2229662,430,116
2229673,364,116
2229679,347,116
2229694,347,116
2229696,303,116
2229712,338,116
2229725,325,116
2229735,312,116
2229745,345,116
2229755,302,116
2229764,320,116
2229777,318,116
2229779,288,116
2229795,325,116
2229808,300,116
2229813,309,116
2229828,336,116
2229838,300,116
2229845,331,116
2229858,308,116
2229869,289,116
2229879,319,116
2229889,286,116
2229896,313,116
2229910,319,116
2229920,297,116
2229929,341,116
2229941,313,116
2229949,319,116
2229961,335,116
2229971,293,116
2229979,320,116
2229992,303,116
2230002,291,116
2230013,325,116
2230023,293,116
2230029,320,116
2230044,324,116
2230054,297,116
2230063,335,116
2230063,305,116
2230080,310,116
2230095,331,116
2230105,294,116
2230112,331,116
2230127,320,116
2230136,308,116
2230145,343,116
2230156,306,116
2230162,328,116
2230177,340,116
2230187,316,116
2230196,349,116
2230196,320,116
2230218,318,116
2230228,336,116
2230229,300,116
2230245,333,116
2230259,320,116
2230262,303,116
2230279,336,116
2230279,299,116
2230295,310,116
2230310,388,116
2230313,605,118
2230329,659,118
2230341,488,118
2230351,203,118
2230361,315,118
2230372,293,118
2230378,316,118
2230392,302,118
2230403,289,118
2230412,323,118
2230423,285,118
2230429,310,118
2230444,318,118
2230454,292,118
2230462,335,118
2230475,311,118
2230484,320,118
2230495,346,118
2230505,310,118
2230512,346,118
2230525,334,118
2230536,326,118
2230545,367,118
2230556,342,118
2230567,377,118
2230577,399,118
2230587,382,118
2230596,430,118
2230596,408,118
2230612,411,118
2230628,428,118
2230639,372,118
2230645,376,118
2230659,332,118
2230670,293,118
2230678,312,118
2230691,266,118
2230696,283,118
2230711,287,118
2230721,257,118
2230729,297,118
2230729,270,118
2230752,274,118
2230762,299,118
2230773,261,118
2230782,295,118
2230793,285,118
2230803,270,118
2230812,307,118
2230824,272,118
2230829,289,118
2230844,297,118
2230854,264,118
2230863,301,118
2230874,276,118
2230878,278,118
2230895,304,118
2230895,268,118
2230912,305,118
2230927,292,118
2230936,279,118
2230946,313,118
2230956,274,118
2230963,294,118
2230968,301,118
2230988,271,118
2230996,311,118
2231008,289,118
2231013,292,118
2231029,319,118
2231039,282,118
2231046,314,118
2231050,305,118
2231070,284,118
2231079,323,118
2231090,285,118
2231095,305,118
2231110,316,118
2231121,286,118
2231129,327,118
2231142,304,118
2231150,304,118
2231162,329,118
2231166,291,118
2231178,324,118
2231193,314,118
2231203,299,118
2231212,335,118
2231224,297,118
2231234,320,118
2231244,340,118
2231255,313,118
2231262,349,118
2231275,323,118
2231286,315,118
2231295,332,118
2231306,289,118
2231312,322,118
2231326,312,118
2231337,296,118
2231345,334,118
2231350,295,118
2231362,306,118
2231378,418,115
2231387,644,115
2231396,658,115
2231408,388,115
2231419,200,115
2231429,317,115
2231440,281,115
2231446,304,115
2231450,295,115
2231470,277,115
2231479,314,115
2231491,277,115
2231496,298,115
2231496,310,115
2231512,283,115
2231529,326,115
2231542,310,115
2231552,316,115
2231562,345,115
2231569,309,115
2231579,343,115
2231579,339,115
2231596,324,115
2231612,366,115
2231624,341,115
2231635,371,115
2231645,395,115
2231655,377,115
2231662,425,115
2231675,405,115
2231685,403,115
2231695,421,115
2231695,366,115
2231711,365,115
2231727,329,115
2231729,290,115
2231746,316,115
2231750,274,115
2231768,286,115
2231778,301,115
2231780,272,115
2231795,312,115
2231809,289,115
2231813,288,115
2231830,314,115
2231830,277,115
2231845,308,115
2231860,305,115
2231863,285,115
2231880,321,115
2231892,291,115
2231901,307,115
2231911,316,115
2231922,284,115
2231928,327,115
2231942,308,115
2231952,307,115
2231962,335,115
2231973,301,115
2231978,329,115
2231993,321,115
2231996,303,115
2232012,337,115
2232023,301,115
2232028,316,115
2232046,327,115
2232056,292,115
2232062,333,115
2232069,314,115
2232086,314,115
2232095,343,115
2232107,308,115
2232112,339,115
2232128,333,115
2232137,314,115
2232146,351,115
