Timestamp,ECGValue,BPM
1560482,294,107
1560498,285,107
1560508,275,107
1560516,308,107
1560516,279,107
1560539,299,107
1560548,305,107
1560559,280,107
1560565,314,107
1560580,293,107
1560590,293,107
1560599,314,107
1560599,282,107
1560616,310,107
1560631,302,107
1560642,287,107
1560651,316,107
1560662,288,107
1560672,305,107
1560682,315,107
1560682,290,107
1560698,327,107
1560714,306,107
1560723,308,107
1560733,329,107
1560744,296,107
1560751,320,107
1560765,312,107
1560774,299,107
1560782,332,107
1560795,305,107
1560799,323,107
1560815,336,107
1560826,309,107
1560832,340,107
1560847,316,107
1560857,313,107
1560865,334,107
1560878,302,107
1560888,330,107
1560898,325,107
1560909,312,107
1560916,345,107
1560929,317,107
1560932,331,107
1560948,340,107
1560960,312,107
1560965,342,107
1560981,321,107
1560991,319,107
1560998,343,107
1561011,317,107
1561020,353,107
1561032,352,107
1561042,335,107
1561052,361,107
1561062,329,107
1561073,337,107
1561082,344,107
1561094,314,107
1561099,345,107
1561114,324,107
1561124,321,107
1561131,340,107
1561145,304,107
1561156,423,107
1561166,654,107
1561175,658,107
1561182,483,107
1561195,216,107
1561206,313,107
1561215,332,107
1561227,294,107
1561237,327,107
1561248,309,107
1561257,307,107
1561265,336,107
1561278,306,107
1561289,332,107
1561299,335,107
1561309,323,107
1561317,360,107
1561329,336,107
1561339,345,107
1561348,353,107
1561360,318,107
1561366,345,107
1561381,328,107
1561391,326,107
1561398,355,107
1561412,333,107
1561421,371,107
1561431,385,107
1561443,383,107
1561452,428,107
1561463,409,107
1561473,415,107
1561482,410,107
1561482,357,107
1561498,363,107
1561514,324,107
1561525,302,107
1561532,320,107
1561545,284,107
1561552,305,107
1561566,300,107
1561575,278,107
1561582,309,107
1561596,281,107
1561607,289,107
1561615,303,107
1561627,278,107
1561632,309,107
1561648,294,107
1561658,286,107
1561666,308,107
1561678,273,107
1561689,297,107
1561698,294,107
1561709,275,107
1561717,307,107
1561730,281,107
1561733,289,107
1561749,303,107
1561761,272,107
1561766,303,107
1561781,290,107
1561791,283,107
1561799,309,107
1561812,276,107
1561822,300,107
1561832,301,107
1561842,283,107
1561852,316,107
1561852,292,107
1561866,302,107
1561882,321,107
1561894,294,107
1561905,327,107
1561914,311,107
1561925,305,107
1561933,331,107
1561945,298,107
1561956,320,107
1561965,321,107
1561977,298,107
1561982,332,107
1561997,312,107
1562007,323,107
1562016,338,107
1562028,308,107
1562032,336,107
1562048,326,107
1562058,315,107
1562068,339,107
1562079,305,107
1562082,325,107
1562098,327,107
1562098,305,107
1562115,339,107
1562131,322,107
1562141,338,107
1562149,353,107
1562161,320,107
1562171,344,107
1562181,327,107
1562182,317,107
1562199,344,107
1562199,314,107
1562215,334,107
1562232,336,107
1562243,310,107
1562253,336,107
1562264,427,104
1562275,658,104
1562283,659,104
1562283,391,104
1562305,233,104
1562315,309,104
1562326,310,104
1562332,330,104
1562346,305,104
1562357,329,104
1562365,336,104
1562377,318,104
1562381,355,104
1562397,338,104
1562408,350,104
1562417,373,104
1562428,350,104
1562433,385,104
1562448,383,104
1562458,378,104
1562465,409,104
1562479,383,104
1562490,403,104
1562499,411,104
1562510,397,104
1562520,440,104
1562531,431,104
1562541,451,104
1562549,480,104
1562553,459,104
1562565,484,105
1562582,460,105
1562592,418,105
1562600,410,105
1562613,347,105
1562623,340,105
1562632,332,105
1562643,302,105
1562653,333,105
1562665,310,105
1562674,315,105
1562682,338,105
1562694,310,105
1562705,337,105
1562715,326,105
1562726,313,105
1562732,339,105
1562747,312,105
1562756,327,105
1562766,335,105
1562777,311,105
1562782,342,105
1562798,316,105
1562808,321,105
1562815,342,105
1562828,314,105
1562839,343,105
1562849,336,105
1562860,323,105
1562865,346,105
1562880,310,105
1562890,324,105
1562898,327,105
1562910,300,105
1562921,332,105
1562931,310,105
1562941,310,105
1562949,330,105
1562962,302,105
1562972,330,105
1562982,325,105
1562993,314,105
1563003,347,105
1563013,318,105
1563016,331,105
1563032,337,105
1563044,309,105
1563054,337,105
1563065,316,105
1563073,316,105
1563082,336,105
1563095,306,105
1563106,335,105
1563115,328,105
1563126,326,105
1563132,364,105
1563132,334,105
1563157,345,105
1563166,346,105
1563177,309,105
1563188,340,105
1563197,316,105
1563208,317,105
1563216,338,105
1563229,307,105
1563231,335,105
1563249,315,105
1563253,347,105
1563266,592,108
1563280,659,108
1563282,578,108
1563299,228,108
1563310,262,108
1563315,327,108
1563332,297,108
1563341,297,108
1563348,323,108
1563362,292,108
1563373,317,108
1563383,313,108
1563383,292,108
1563399,324,108
1563399,299,108
1563424,315,108
1563432,334,108
1563444,315,108
1563455,346,108
1563464,327,108
1563474,320,108
1563482,343,108
1563496,315,108
1563506,344,108
1563515,349,108
1563527,343,108
1563532,387,108
1563547,372,108
1563553,395,108
1563566,415,108
1563578,379,108
1563588,389,108
1563598,343,108
1563609,314,108
1563615,318,108
1563622,272,108
1563640,291,108
1563649,285,108
1563653,267,108
1563666,301,108
1563675,277,108
1563691,286,108
1563698,299,108
1563711,271,108
1563721,301,108
1563731,286,108
1563742,281,108
1563748,306,108
1563763,275,108
1563773,299,108
1563782,299,108
1563793,280,108
1563799,311,108
1563799,286,108
1563824,299,108
1563832,313,108
1563832,285,108
1563855,318,108
1563865,303,108
1563875,300,108
1563882,324,108
1563896,292,108
1563898,315,108
1563915,312,108
1563926,291,108
1563936,321,108
1563947,296,108
1563958,306,108
1563966,324,108
1563978,298,108
1563988,332,108
1563999,315,108
1563999,309,108
1564016,335,108
1564029,302,108
1564032,323,108
1564049,320,108
1564060,301,108
1564065,333,108
1564081,305,108
1564091,316,108
1564098,330,108
1564111,301,108
1564122,334,108
1564132,322,108
1564142,315,108
1564148,344,108
1564155,313,108
1564164,333,108
1564182,336,108
1564182,313,108
1564204,343,108
1564209,317,108
1564223,324,108
1564235,339,108
1564243,309,108
1564256,339,108
1564266,324,108
1564276,315,108
1564285,339,108
1564292,314,108
1564292,346,108
1564311,353,108
1564327,331,108
1564327,363,108
1564343,333,108
1564358,332,108
1564368,345,108
1564376,312,108
1564388,339,108
1564393,325,108
1564409,315,108
1564417,343,108
1564425,303,108
1564440,403,93
1564450,638,93
1564460,659,93
1564470,512,93
1564481,215,93
1564491,304,93
1564500,335,93
1564509,295,93
1564522,328,93
1564532,320,93
1564543,312,93
1564553,339,93
1564559,307,93
1564574,326,93
1564583,331,93
1564592,311,93
1564604,349,93
1564609,330,93
1564625,338,93
1564635,354,93
1564642,322,93
1564656,351,93
1564666,343,93
1564676,334,93
1564676,368,93
1564692,348,93
1564707,382,93
1564718,400,93
1564725,391,93
1564737,432,93
1564748,409,102
1564758,406,102
1564769,404,102
1564776,348,102
1564789,353,102
1564799,323,102
1564809,302,102
1564812,327,102
1564825,299,102
1564841,317,102
1564851,322,102
1564859,294,102
1564872,322,102
1564882,291,102
1564892,289,102
1564902,304,102
1564910,273,102
1564913,304,102
1564926,299,102
1564943,290,102
1564952,320,102
1564964,291,102
1564974,309,102
1564985,317,102
1564992,294,102
1565005,332,102
1565015,316,102
1565015,323,102
1565035,348,102
1565042,318,102
1565055,342,102
1565066,328,102
1565076,307,102
1565087,334,102
1565093,304,102
1565108,320,102
1565118,328,102
1565126,303,102
1565138,338,102
1565148,317,102
1565159,316,102
1565169,333,102
1565176,300,102
1565176,328,102
1565192,318,102
1565209,304,102
1565219,332,102
1565226,302,102
1565240,314,102
1565243,321,102
1565260,294,102
1565272,325,102
1565276,304,102
1565292,305,102
1565303,329,102
1565309,297,102
1565323,324,102
1565326,319,102
1565343,306,102
1565353,333,102
1565359,304,102
1565374,316,102
1565385,320,102
1565393,294,102
1565393,324,102
1565411,305,102
1565425,306,102
1565436,330,102
1565443,309,102
1565456,340,102
1565466,328,102
1565476,311,102
1565487,332,102
1565498,297,102
1565508,307,102
1565518,314,102
1565525,286,102
1565539,318,102
1565549,300,102
1565559,296,102
1565569,311,102
1565576,344,102
1565589,619,93
1565600,659,93
1565609,479,93
1565621,204,93
1565626,261,93
1565626,298,93
1565651,301,93
1565659,276,93
1565672,308,93
1565677,295,93
1565693,293,93
1565694,318,93
1565710,293,93
1565720,323,93
1565734,327,93
1565742,315,93
1565753,349,93
1565761,325,93
1565775,343,93
1565785,359,93
1565792,338,93
1565805,373,93
1565809,364,93
1565826,371,93
1565826,409,93
1565842,391,93
1565857,427,93
1565867,437,93
1565876,426,93
1565888,461,93
1565892,425,101
1565909,411,101
1565918,391,101
1565925,331,101
1565939,335,101
1565949,307,101
1565959,296,101
1565970,321,101
1565976,292,101
1565990,319,101
1566000,320,101
1566009,302,101
1566021,335,101
1566026,308,101
1566026,319,101
1566043,333,101
1566059,305,101
1566069,336,101
1566083,325,101
1566092,323,101
1566103,349,101
1566109,320,101
1566123,344,101
1566133,343,101
1566143,326,101
1566143,360,101
1566163,337,101
1566175,346,101
1566185,358,101
1566193,325,101
1566205,352,101
1566212,332,101
1566226,323,101
1566236,349,101
1566243,317,101
1566257,338,101
1566267,339,101
1566276,318,101
1566276,352,101
1566293,327,101
1566308,334,101
1566318,351,101
1566326,320,101
1566339,348,101
1566343,335,101
1566359,327,101
1566370,352,101
1566375,325,101
1566390,362,101
1566392,365,101
1566409,334,101
1566421,362,101
1566425,328,101
1566441,332,101
1566452,347,101
1566460,318,101
1566472,344,101
1566483,329,101
1566492,319,101
1566503,339,101
1566512,318,101
1566523,489,95
1566533,659,95
1566542,658,95
1566554,332,95
1566559,237,95
1566575,320,95
1566586,336,95
1566593,300,95
1566606,330,95
1566609,319,95
1566626,308,95
1566637,332,95
1566642,302,95
1566657,324,95
1566668,332,95
1566676,313,95
1566688,349,95
1566699,329,95
1566708,338,95
1566712,361,95
1566726,334,95
1566726,361,95
1566743,353,95
1566760,342,95
1566770,375,95
1566777,358,95
1566777,392,95
1566802,409,95
1566809,393,95
1566818,429,95
1566827,400,95
1566842,382,95
1566853,369,95
1566859,308,95
1566873,311,95
1566883,283,95
1566893,262,95
1566904,288,95
1566914,259,95
1566925,279,95
1566927,286,95
1566943,260,95
1566955,291,95
1566962,269,95
1566976,271,95
1566986,293,95
1566992,265,95
1567007,293,95
1567017,284,95
1567026,270,95
1567037,299,95
1567042,271,95
1567058,286,95
1567065,293,95
1567075,266,95
1567089,301,95
1567093,282,95
1567109,287,95
1567119,311,95
1567126,285,95
1567140,312,95
1567150,303,95
1567160,289,95
1567171,317,95
1567181,284,95
1567192,298,95
1567201,305,95
1567209,282,95
1567222,316,95
1567232,299,95
1567242,304,95
1567253,329,95
1567259,299,95
1567274,326,95
1567284,320,95
1567293,306,95
1567304,335,95
1567309,306,95
1567325,320,95
1567334,329,95
1567343,301,95
1567356,332,95
1567366,312,95
1567376,310,95
1567386,333,95
1567392,303,95
1567406,329,95
1567417,329,95
1567426,316,95
1567437,347,95
1567443,317,95
1567458,330,95
1567469,340,95
1567476,311,95
1567489,340,95
1567499,321,95
1567510,319,95
1567520,341,95
1567527,310,95
1567540,344,95
1567551,354,95
1567559,325,95
1567571,356,95
1567577,324,95
1567577,329,95
1567603,341,95
1567609,310,95
1567623,342,95
1567625,326,95
1567642,320,95
1567653,344,95
1567659,302,95
1567674,413,92
1567685,648,92
1567692,658,92
1567704,497,92
1567715,210,92
1567726,302,92
1567735,325,92
1567742,287,92
1567756,317,92
1567763,301,92
1567775,299,92
1567775,327,92
1567792,297,92
1567807,323,92
1567817,328,92
1567826,313,92
1567826,350,92
1567848,329,92
1567859,339,92
1567869,351,92
1567876,319,92
1567890,350,92
1567893,335,92
1567909,332,92
1567920,363,92
1567925,341,92
1567940,378,92
1567943,394,92
1567960,389,92
1567971,433,92
1567976,412,92
1567992,415,92
1567992,410,92
1568009,354,92
1568022,361,92
1568025,328,92
1568042,309,92
1568042,330,92
1568059,296,92
1568074,315,92
1568084,316,92
1568093,294,92
1568093,324,92
1568115,295,92
1568126,299,92
1568136,313,92
1568143,286,92
1568156,318,92
1568166,307,92
1568176,300,92
1568176,327,92
1568194,296,92
1568208,318,92
1568218,318,92
1568227,296,92
1568227,327,92
1568243,297,92
1568259,304,92
1568269,322,92
1568276,293,92
1568276,325,92
1568297,313,92
1568310,303,92
1568320,331,92
1568326,302,92
1568341,323,92
1568351,329,92
1568359,307,92
1568373,341,92
1568382,315,92
1568392,320,92
1568394,336,92
1568410,305,92
1568423,335,92
1568433,322,92
1568442,311,92
1568454,338,92
1568462,300,92
1568475,312,92
1568485,313,92
1568493,290,92
1568505,321,92
1568515,299,92
1568526,303,92
1568536,322,92
1568544,296,92
1568556,326,92
1568559,315,92
1568577,306,92
1568588,331,92
1568593,302,92
1568608,317,92
1568617,318,92
1568626,292,92
1568639,325,92
1568649,302,92
1568659,309,92
1568670,342,92
1568675,318,92
1568690,342,92
1568701,332,92
1568709,317,92
1568713,336,92
1568731,306,92
1568742,318,92
1568752,320,92
1568759,292,92
1568772,319,92
1568776,293,92
1568792,287,92
1568804,399,92
1568809,631,91
1568823,659,91
1568833,418,91
1568843,176,91
1568843,297,91
1568860,283,91
1568867,292,91
1568876,301,91
1568892,276,91
1568906,306,91
1568910,286,91
1568925,286,91
1568925,312,91
1568942,290,91
1568956,328,91
1568967,328,91
1568976,321,91
1568976,356,91
1568998,334,91
1569008,358,91
1569019,373,91
1569026,353,91
1569039,393,91
1569049,383,91
1569060,393,91
1569070,427,91
1569076,413,91
1569091,454,91
1569093,459,91
1569109,448,91
1569122,466,91
1569132,412,91
1569142,393,91
1569152,371,91
1569160,321,91
1569173,339,91
1569183,315,91
1569192,313,91
1569203,340,91
1569212,314,91
1569224,339,91
1569227,334,91
1569243,317,91
1569243,349,91
1569259,319,91
1569275,332,91
1569276,343,91
1569292,315,91
1569306,348,91
1569316,332,91
1569326,327,91
1569337,352,91
1569342,322,91
1569358,347,91
1569368,348,91
1569375,335,91
1569388,365,91
1569399,334,91
1569408,343,91
1569419,350,91
1569426,319,91
1569439,344,91
1569450,322,91
1569459,321,91
1569471,345,91
1569476,313,91
1569491,336,91
1569501,333,91
1569509,316,91
1569522,348,91
1569531,324,91
1569542,336,91
1569552,349,91
1569560,317,91
1569573,346,91
1569583,331,91
1569592,323,91
1569604,347,91
1569609,328,91
1569625,357,91
1569635,349,91
1569643,330,91
1569643,357,91
1569665,327,91
1569676,336,91
1569686,349,91
1569692,316,91
1569707,345,91
1569713,331,91
1569726,322,91
1569737,339,91
1569743,403,92
1569757,657,92
1569768,659,92
1569776,476,92
1569789,243,92
1569793,304,92
1569809,327,92
1569820,331,92
1569826,301,92
1569840,334,92
1569843,321,92
1569859,314,92
1569871,341,92
1569877,312,92
1569877,335,92
1569901,339,92
1569909,320,92
1569922,355,92
1569932,335,92
1569942,343,92
1569953,358,92
1569959,328,92
1569973,357,92
1569977,349,92
1569992,346,92
1570005,384,92
1570010,365,92
1570025,399,92
1570035,412,92
1570043,397,92
1570056,429,106
1570066,390,106
1570076,364,106
1570087,346,106
1570092,288,106
1570107,299,106
1570117,277,106
1570126,260,106
1570126,285,106
1570148,253,106
1570158,275,106
1570169,282,106
1570176,262,106
1570188,294,106
1570199,268,106
1570209,275,106
1570220,293,106
1570226,265,106
1570241,293,106
1570250,279,106
1570259,270,106
1570263,300,106
1570281,269,106
1570292,289,106
1570302,294,106
1570309,272,106
1570323,306,106
1570333,284,106
1570343,290,106
1570343,312,106
1570360,286,106
1570368,313,106
1570385,303,106
1570393,287,106
1570405,312,106
1570415,280,106
1570425,296,106
1570436,303,106
1570442,282,106
1570456,317,106
1570464,301,106
1570476,305,106
1570486,328,106
1570493,298,106
1570507,324,106
1570517,313,106
1570526,297,106
1570538,327,106
1570543,299,106
1570559,313,106
1570569,320,106
1570576,295,106
1570589,327,106
1570593,309,106
1570609,312,106
1570620,335,106
1570626,304,106
1570641,331,106
1570651,323,106
1570660,308,106
1570672,337,106
1570682,312,106
1570693,327,106
1570702,335,106
1570712,309,106
1570712,339,106
1570726,318,106
1570742,317,106
1570754,337,106
1570760,305,106
1570774,332,106
1570784,329,106
1570792,313,106
1570805,346,106
1570815,319,106
1570815,333,106
1570826,342,106
1570843,323,106
1570856,363,106
1570867,336,106
1570876,334,106
1570888,357,106
1570893,316,106
1570908,337,106
1570917,330,106
1570926,313,106
1570938,342,106
1570948,315,106
1570959,327,106
1570969,327,106
1570976,341,106
1570990,572,96
1571000,659,96
1571009,616,96
1571020,253,96
1571026,263,96
1571026,327,96
1571051,307,96
1571060,288,96
1571072,322,96
1571082,297,96
1571092,313,96
1571103,325,96
1571109,303,96
1571124,338,96
1571134,328,96
1571143,331,96
1571153,363,96
1571162,335,96
1571174,355,96
1571184,344,96
1571192,321,96
1571205,353,96
1571216,329,96
1571226,346,96
1571236,371,96
1571243,356,96
1571257,411,96
1571267,412,96
1571276,424,96
1571288,459,96
1571297,425,105
1571307,432,105
1571318,400,105
1571326,350,105
1571326,358,105
1571343,311,105
1571360,311,105
1571369,320,105
1571376,289,105
1571389,318,105
1571400,301,105
1571409,291,105
1571421,312,105
1571426,276,105
1571442,294,105
1571451,297,105
1571459,281,105
1571472,316,105
1571483,293,105
1571493,298,105
1571503,310,105
1571509,280,105
1571524,306,105
1571534,292,105
1571542,282,105
1571554,307,105
1571560,275,105
1571575,297,105
1571585,298,105
1571593,279,105
1571606,309,105
1571616,285,105
1571626,290,105
1571627,308,105
1571643,277,105
1571657,303,105
1571667,294,105
1571676,288,105
1571687,316,105
1571698,286,105
1571708,306,105
1571718,310,105
1571726,288,105
1571739,320,105
1571743,298,105
1571760,301,105
1571769,318,105
1571776,287,105
1571776,313,105
1571793,300,105
1571809,290,105
1571822,321,105
1571825,292,105
1571842,314,105
1571852,317,105
1571859,298,105
1571872,332,105
1571883,314,105
1571893,318,105
1571903,334,105
1571909,319,105
1571923,356,105
1571935,338,105
1571943,323,105
1571955,344,105
1571965,313,105
1571975,330,105
1571986,336,105
1571993,314,105
1572006,347,105
1572016,328,105
1572027,328,105
1572037,348,105
1572043,451,97
1572057,659,97
1572068,659,97
1572076,390,97
1572089,259,97
1572097,315,97
1572109,339,97
1572109,343,97
1572126,322,97
1572140,356,97
1572150,336,97
1572159,338,97
1572171,361,97
1572176,336,97
1572192,367,97
1572201,365,97
1572210,359,97
1572213,392,97
1572226,372,97
1572242,392,97
1572247,404,97
1572259,379,97
1572268,411,97
1572283,393,97
1572293,401,97
1572304,435,97
1572309,422,97
1572324,462,97
1572334,466,97
1572343,457,97
1572347,480,103
1572365,432,103
1572375,413,103
1572386,385,103
1572392,328,103
1572407,336,103
1572416,305,103
1572426,296,103
1572437,317,103
1572443,285,103
1572443,313,103
1572469,310,103
1572476,296,103
1572489,325,103
1572498,297,103
1572509,310,103
1572520,319,103
1572526,292,103
1572536,322,103
1572551,304,103
1572560,305,103
1572570,331,103
1572581,299,103
1572591,324,103
1572602,320,103
1572610,306,103
1572622,336,103
1572631,306,103
1572643,318,103
1572652,329,103
1572660,299,103
1572673,328,103
1572676,307,103
1572692,304,103
1572705,329,103
1572709,299,103
1572725,326,103
1572735,318,103
1572742,299,103
1572756,331,103
1572766,305,103
1572776,319,103
1572785,329,103
1572792,301,103
1572807,333,103
1572812,316,103
1572826,307,103
1572838,332,103
1572845,299,103
1572857,323,103
1572868,323,103
1572876,303,103
1572888,336,103
1572899,321,103
1572909,343,103
1572919,347,103
1572925,319,103
1572941,346,103
1572950,321,103
1572959,315,103
1572971,337,103
1572981,303,103
1572992,325,103
1573002,323,103
1573009,303,103
1573022,323,103
1573033,379,103
1573042,630,111
1573043,659,111
1573059,473,111
1573074,226,111
1573077,294,111
1573092,302,111
1573104,318,111
1573110,287,111
1573125,309,111
1573127,312,111
1573144,290,111
1573144,322,111
1573166,297,111
1573175,305,111
1573187,323,111
1573193,300,111
1573207,337,111
1573218,330,111
1573226,323,111
1573238,347,111
1573248,314,111
1573259,337,111
1573269,342,111
1573276,324,111
1573290,366,111
1573293,356,111
1573310,377,111
1573319,407,111
1573326,386,111
1573340,422,111
1573351,399,111
1573359,361,111
1573371,360,111
1573375,304,111
1573392,302,111
1573393,294,111
1573410,269,111
1573419,301,111
1573426,280,111
1573442,286,111
1573454,305,111
1573459,276,111
1573474,303,111
1573484,288,111
1573492,273,111
1573505,300,111
1573513,273,111
1573526,292,111
1573536,300,111
1573543,279,111
1573555,313,111
1573566,291,111
1573576,295,111
1573587,313,111
1573592,281,111
1573608,310,111
1573618,302,111
1573626,292,111
1573638,323,111
1573643,294,111
1573658,312,111
1573663,317,111
1573675,291,111
1573689,323,111
1573692,300,111
1573710,304,111
1573719,324,111
1573726,297,111
1573741,326,111
1573751,323,111
1573760,309,111
1573767,338,111
1573782,307,111
1573792,322,111
1573794,328,111
1573810,302,111
1573824,334,111
1573827,314,111
1573843,314,111
1573854,335,111
1573860,305,111
1573874,330,111
1573884,323,111
1573892,312,111
1573905,342,111
1573915,316,111
1573925,333,111
1573936,341,111
1573943,316,111
1573943,347,111
1573961,327,111
1573976,325,111
1573976,344,111
1573994,313,111
1574008,338,111
1574018,329,111
1574026,312,111
1574039,343,111
1574043,316,111
1574059,330,111
1574069,340,111
1574076,312,111
1574090,351,111
1574100,340,111
1574109,342,111
1574121,357,111
1574127,325,111
1574141,343,111
1574151,333,111
1574160,314,111
1574160,345,111
1574176,316,111
1574192,328,111
1574203,339,111
1574209,310,111
1574223,342,111
1574234,444,96
1574243,658,96
1574254,659,96
1574260,394,96
1574275,247,96
1574277,328,96
1574293,308,96
1574305,333,96
1574316,307,96
1574326,319,96
1574336,333,96
1574342,307,96
1574357,337,96
1574367,323,96
1574376,323,96
1574388,353,96
1574398,330,96
1574408,360,96
1574418,361,96
1574426,335,96
1574426,358,96
1574449,326,96
1574460,333,96
1574470,353,96
1574476,332,96
1574491,379,96
1574501,382,96
1574509,394,96
1574521,435,96
1574532,414,96
1574542,443,104
1574543,433,104
1574561,390,104
1574573,394,104
1574577,342,104
1574592,328,104
1574603,327,104
1574610,288,104
1574617,312,104
1574626,293,104
1574643,285,104
1574654,312,104
1574661,280,104
1574675,300,104
1574686,298,104
1574692,276,104
1574692,314,104
1574709,292,104
1574726,297,104
1574736,310,104
1574743,280,104
1574757,312,104
1574768,301,104
1574776,294,104
1574788,319,104
1574799,290,104
1574809,310,104
1574819,310,104
1574826,286,104
1574826,319,104
1574850,295,104
1574859,299,104
1574870,317,104
1574876,288,104
1574891,317,104
1574901,306,104
1574909,299,104
1574922,325,104
1574932,295,104
1574942,313,104
1574952,314,104
1574961,291,104
1574961,320,104
1574976,299,104
1574993,302,104
1574993,321,104
1575012,291,104
1575022,318,104
1575034,305,104
1575043,296,104
1575043,323,104
1575061,293,104
1575075,315,104
1575085,317,104
1575092,296,104
1575106,331,104
1575117,309,104
1575126,315,104
1575137,334,104
1575144,303,104
1575144,339,104
1575167,342,104
1575176,323,104
1575176,350,104
1575192,316,104
1575209,330,104
1575218,335,104
1575226,310,104
1575240,345,104
1575243,321,104
1575260,325,104
1575267,346,104
1575276,305,104
1575291,407,97
1575292,653,97
1575309,659,97
1575322,545,97
1575332,207,97
1575342,310,97
1575353,343,97
1575361,313,97
1575374,345,97
1575384,326,97
1575393,328,97
1575393,348,97
1575410,318,97
1575424,348,97
1575426,346,97
1575443,337,97
1575455,370,97
1575465,342,97
1575476,364,97
1575487,376,97
1575493,354,97
1575506,386,97
1575517,366,97
1575525,372,97
1575538,404,97
1575548,388,97
1575557,429,97
1575568,436,97
1575576,433,97
1575589,471,97
1575599,442,102
1575610,440,102
1575620,417,102
1575626,352,102
1575640,353,102
1575650,310,102
1575659,293,102
1575670,312,102
1575676,280,102
1575692,307,102
1575701,305,102
1575709,288,102
1575722,317,102
1575732,287,102
1575742,296,102
1575754,308,102
1575762,284,102
1575774,316,102
1575784,299,102
1575793,297,102
1575804,321,102
1575815,291,102
1575825,315,102
1575835,309,102
1575842,290,102
1575856,323,102
1575865,297,102
1575876,311,102
1575887,323,102
1575892,297,102
1575907,325,102
1575917,306,102
1575926,297,102
1575926,319,102
1575948,284,102
1575958,305,102
1575969,303,102
1575976,288,102
1575989,324,102
1575999,304,102
1576009,318,102
1576015,331,102
1576026,303,102
1576040,333,102
1576051,314,102
1576059,310,102
1576071,335,102
1576076,304,102
1576092,327,102
1576103,325,102
1576109,307,102
1576124,336,102
1576132,304,102
1576142,312,102
1576153,326,102
1576162,300,102
1576174,330,102
1576185,319,102
1576193,329,102
1576204,361,102
1576214,320,102
1576226,340,102
1576236,332,102
1576242,306,102
1576256,335,102
1576266,309,102
1576276,316,102
1576286,332,102
1576293,302,102
1576293,328,102
1576318,307,102
1576328,416,95
1576338,658,95
1576349,658,95
1576359,389,95
1576369,230,95
1576377,296,95
1576389,331,95
1576400,297,95
1576409,309,95
1576420,326,95
1576426,297,95
1576441,327,95
1576451,312,95
1576461,303,95
1576472,334,95
1576481,306,95
1576492,332,95
1576503,344,95
1576509,327,95
1576523,359,95
1576533,335,95
1576543,338,95
1576554,354,95
1576563,329,95
1576573,364,95
1576585,363,95
1576593,363,95
1576593,406,95
1576616,388,95
1576625,420,95
1576636,427,106
1576642,392,106
1576657,395,106
1576666,340,106
1576676,320,106
1576676,320,106
1576693,280,106
1576707,305,106
1576718,296,106
1576726,286,106
1576738,317,106
1576749,288,106
1576758,305,106
1576769,307,106
1576776,281,106
1576790,313,106
1576800,290,106
1576809,294,106
1576821,317,106
1576831,286,106
1576841,313,106
1576852,304,106
1576860,291,106
1576873,318,106
1576882,291,106
1576893,309,106
1576902,314,106
1576909,292,106
1576923,327,106
1576933,307,106
1576942,311,106
1576954,332,106
1576964,298,106
1576975,322,106
1576977,311,106
1576992,294,106
1577006,324,106
1577010,295,106
1577026,313,106
1577036,323,106
1577042,300,106
1577056,335,106
1577067,316,106
1577075,318,106
1577088,339,106
1577093,307,106
1577108,334,106
1577117,325,106
1577126,311,106
1577138,342,106
1577149,313,106
1577159,330,106
1577170,338,106
1577176,313,106
1577176,344,106
1577200,324,106
1577210,325,106
1577217,349,106
1577226,318,106
1577242,344,106
1577252,338,106
1577259,323,106
1577272,354,106
1577283,326,106
1577292,339,106
1577304,348,106
1577309,322,106
1577324,352,106
1577334,331,106
1577342,332,106
1577354,354,106
1577365,322,106
1577375,347,106
1577377,344,106
1577392,329,106
1577406,360,106
1577409,331,106
1577426,341,106
1577437,349,106
1577443,324,106
1577457,367,106
1577467,351,106
1577476,342,106
1577488,362,106
1577498,325,106
1577508,344,106
1577519,338,106
1577526,322,106
1577526,351,106
1577543,324,106
1577559,337,106
1577570,346,106
1577576,311,106
1577590,405,95
1577592,616,95
1577609,659,95
1577622,597,95
1577632,204,95
1577641,297,95
1577643,319,95
1577659,290,95
1577672,322,95
1577676,298,95
1577693,314,95
1577703,328,95
1577710,297,95
1577724,326,95
1577727,314,95
1577743,313,95
1577743,344,95
1577764,315,95
1577776,339,95
1577785,336,95
1577793,317,95
1577806,351,95
1577817,328,95
1577827,341,95
1577837,364,95
1577843,347,95
1577858,390,95
1577867,388,95
1577876,394,95
1577888,425,95
1577892,399,95
1577908,415,102
1577918,391,102
1577926,338,102
1577940,339,102
1577950,288,102
1577960,277,102
1577971,281,102
1577976,251,102
1577991,282,102
1577992,267,102
1578010,263,102
1578021,291,102
1578026,260,102
1578042,280,102
1578053,283,102
1578060,263,102
1578074,297,102
1578076,271,102
1578093,280,102
1578103,298,102
1578110,271,102
1578124,302,102
1578127,291,102
1578142,284,102
1578156,311,102
1578165,281,102
1578176,302,102
1578186,304,102
1578193,282,102
1578207,314,102
1578217,289,102
1578226,297,102
1578237,318,102
1578243,289,102
1578258,321,102
1578264,313,102
1578276,306,102
1578289,335,102
1578299,306,102
1578309,328,102
1578319,333,102
1578325,312,102
1578340,347,102
1578343,326,102
1578359,333,102
1578371,351,102
1578377,322,102
1578377,351,102
1578394,341,102
1578410,333,102
1578422,361,102
1578426,333,102
1578443,354,102
1578453,359,102
1578459,338,102
1578467,369,102
1578484,345,102
1578493,361,102
1578493,386,102
1578509,349,102
1578525,375,102
1578527,359,102
1578543,340,102
1578543,369,102
1578564,338,102
1578570,353,102
1578587,356,102
1578593,331,102
1578593,362,102
1578617,331,102
1578626,357,102
1578638,567,95
1578648,659,95
1578658,657,95
1578668,281,95
1578676,262,95
1578689,351,95
1578692,317,95
1578709,331,95
1578719,337,95
1578726,314,95
1578740,345,95
1578750,322,95
1578760,325,95
1578770,347,95
1578781,321,95
1578792,353,95
1578793,348,95
1578809,339,95
1578822,372,95
1578827,347,95
1578842,364,95
1578853,372,95
1578859,352,95
1578874,389,95
1578885,378,95
1578893,393,95
1578904,430,95
1578915,412,95
1578925,449,95
1578936,443,95
1578943,422,101
1578956,426,101
1578966,363,101
1578976,346,101
1578987,325,101
1578993,278,101
1579007,299,101
1579018,275,101
1579026,275,101
1579038,298,101
1579048,267,101
1579059,294,101
1579069,289,101
1579076,276,101
1579089,306,101
1579099,278,101
1579109,294,101
1579120,305,101
1579126,280,101
1579141,315,101
1579151,295,101
1579159,294,101
1579172,311,101
1579182,280,101
1579192,306,101
1579202,301,101
1579209,288,101
1579223,320,101
1579234,293,101
1579244,307,101
1579244,317,101
1579259,288,101
1579275,319,101
1579284,296,101
1579293,290,101
1579305,309,101
1579315,277,101
1579325,305,101
1579335,304,101
1579343,291,101
1579343,327,101
1579366,300,101
1579375,315,101
1579387,325,101
1579397,297,101
1579408,327,101
1579418,308,101
1579426,306,101
1579438,328,101
1579449,295,101
1579459,321,101
1579470,318,101
1579476,300,101
1579490,334,101
1579499,305,101
1579510,318,101
1579520,331,101
1579526,302,101
1579540,335,101
1579551,318,101
1579559,316,101
1579572,341,101
1579581,311,101
1579592,337,101
1579603,334,101
1579609,317,101
1579624,345,101
1579634,316,101
1579643,333,101
1579653,358,101
1579660,320,101
1579674,348,101
1579685,327,101
1579692,318,101
1579705,341,101
1579710,308,101
1579725,330,101
1579736,328,101
1579742,308,101
1579742,339,101
1579767,301,101
1579776,368,101
1579788,600,108
1579793,658,108
1579809,580,108
1579818,221,108
1579826,280,108
1579839,332,108
1579850,291,108
1579859,315,108
1579870,317,108
1579876,298,108
1579890,331,108
1579900,305,108
1579910,315,108
1579921,330,108
1579931,305,108
1579942,341,108
1579952,333,108
1579960,329,108
1579968,354,108
1579983,320,108
1579992,343,108
1580003,345,108
1580010,327,108
1580018,364,108
1580034,346,108
1580044,366,108
1580054,396,108
1580064,383,108
1580075,426,108
1580085,419,108
1580093,411,108
1580097,418,108
1580116,358,108
1580125,351,108
1580136,327,108
1580142,290,108
1580158,315,108
1580166,287,108
1580176,295,108
1580188,314,108
1580198,287,108
1580208,316,108
1580220,300,108
1580226,289,108
1580239,313,108
1580249,281,108
1580259,303,108
1580270,306,108
1580276,284,108
1580291,322,108
1580293,300,108
1580310,310,108
1580321,327,108
1580332,298,108
1580342,326,108
1580352,312,108
1580359,300,108
1580373,328,108
1580377,297,108
1580392,321,108
1580404,325,108
1580412,304,108
1580424,337,108
1580433,309,108
1580443,312,108
1580455,329,108
1580460,301,108
1580475,332,108
1580485,322,108
1580494,316,108
1580506,343,108
1580516,311,108
1580526,328,108
1580527,331,108
1580544,307,108
1580557,337,108
1580559,315,108
1580576,321,108
1580588,339,108
1580592,307,108
1580609,336,108
1580618,323,108
1580626,311,108
1580626,339,108
1580650,309,108
1580660,328,108
1580670,332,108
1580681,311,108
1580691,343,108
1580701,320,108
1580710,320,108
1580714,339,108
1580732,305,108
1580742,333,108
1580752,322,108
1580759,311,108
1580773,338,108
1580783,304,108
1580793,326,108
1580804,330,108
1580814,304,108
1580824,346,108
1580834,330,108
1580842,324,108
1580854,341,108
1580865,304,108
1580876,327,108
1580886,318,108
1580893,303,108
1580906,332,108
1580916,301,108
1580926,318,108
1580937,316,108
1580947,291,108
1580958,453,106
1580960,658,106
1580976,658,106
1580980,348,106
1580999,198,106
1581009,309,106
1581019,302,106
1581026,285,106
1581040,319,106
1581051,291,106
1581059,309,106
1581070,318,106
1581076,292,106
1581091,326,106
1581093,309,106
1581110,312,106
1581123,337,106
1581133,307,106
1581142,339,106
1581152,337,106
1581160,328,106
1581173,363,106
1581176,337,106
1581192,362,106
1581192,381,106
1581209,368,106
1581224,416,106
1581235,410,106
1581243,422,106
1581255,452,106
1581266,422,106
1581275,434,106
1581286,400,106
1581292,354,106
1581306,352,106
1581317,302,106
1581326,303,106
1581326,307,106
1581342,284,106
1581358,317,106
1581368,303,106
1581377,305,106
1581377,330,106
1581392,301,106
1581409,326,106
1581418,319,106
1581426,303,106
1581440,334,106
1581450,311,106
1581459,328,106
1581471,343,106
1581476,320,106
1581492,352,106
1581502,334,106
1581509,334,106
1581522,358,106
1581526,324,106
1581543,350,106
1581554,343,106
1581560,321,106
1581571,348,106
1581584,317,106
1581593,330,106
1581593,340,106
1581609,313,106
1581625,346,106
1581627,329,106
1581642,327,106
1581655,352,106
1581666,323,106
1581676,345,106
1581687,340,106
1581692,320,106
1581707,351,106
1581717,325,106
1581726,334,106
1581726,345,106
1581748,316,106
1581759,346,106
1581768,330,106
1581775,328,106
1581790,351,106
1581793,320,106
1581810,345,106
1581819,343,106
1581826,332,106
1581841,375,106
1581851,340,106
1581859,344,106
1581871,354,106
1581882,318,106
1581892,345,106
1581902,327,106
1581911,324,106
1581911,348,106
1581927,314,106
1581943,336,106
1581943,323,106
1581961,354,106
1581974,607,106
1581984,659,106
1581992,596,106
1582005,239,106
1582015,268,106
1582026,334,106
1582035,306,106
1582043,299,106
1582056,326,106
1582066,297,106
1582076,321,106
1582087,319,106
1582092,301,106
1582107,334,106
1582117,314,106
1582126,329,106
1582138,349,106
1582142,325,106
1582158,358,106
1582169,342,106
1582176,336,106
1582176,362,106
1582192,336,106
1582209,364,106
1582221,376,106
1582231,373,106
1582241,420,106
1582251,406,106
1582259,422,106
1582272,441,106
1582282,401,106
1582292,406,106
1582303,359,106
1582309,322,106
1582323,324,106
1582333,278,106
1582342,291,106
1582354,288,106
1582359,266,106
1582374,297,106
1582376,272,106
1582392,281,106
1582405,298,106
1582410,271,106
1582425,302,106
1582426,289,106
1582442,283,106
1582457,312,106
1582460,280,106
1582476,301,106
1582487,302,106
1582493,279,106
1582508,310,106
1582517,283,106
1582525,290,106
1582539,307,106
1582549,276,106
1582559,307,106
1582569,296,106
1582576,289,106
1582590,319,106
1582601,288,106
1582609,309,106
1582621,312,106
1582631,287,106
1582642,318,106
1582652,293,106
1582661,300,106
1582672,319,106
1582676,290,106
1582692,320,106
1582703,309,106
1582709,300,106
1582723,328,106
1582734,296,106
1582742,313,106
1582754,316,106
1582764,295,106
1582775,328,106
1582785,304,106
1582793,311,106
1582793,332,106
1582809,302,106
1582826,331,106
1582836,321,106
1582842,312,106
1582857,342,106
1582867,312,106
1582876,331,106
1582876,335,106
1582893,310,106
1582908,341,106
1582919,313,106
1582926,315,106
1582939,336,106
1582948,307,106
1582960,337,106
1582970,327,106
1582975,317,106
1582991,347,106
1583000,316,106
1583009,334,106
1583021,340,106
1583032,314,106
1583041,355,106
1583043,346,106
1583059,340,106
1583073,361,106
1583077,327,106
1583092,346,106
1583103,331,106
1583109,316,106
1583124,344,106
1583135,312,106
1583143,330,106
1583143,335,106
1583160,301,106
1583175,422,107
1583186,635,107
1583194,658,107
1583206,505,107
1583216,208,107
1583225,320,107
1583236,323,107
1583247,297,107
1583257,329,107
1583268,301,107
1583276,319,107
1583288,327,107
1583298,302,107
1583309,334,107
1583318,315,107
1583326,322,107
1583340,349,107
1583350,326,107
1583359,355,107
1583370,345,107
1583376,327,107
1583390,357,107
1583401,331,107
1583409,348,107
1583422,361,107
1583432,343,107
1583442,390,107
1583452,385,107
1583459,398,107
1583472,430,107
1583483,404,107
1583493,427,107
1583494,400,107
1583510,357,107
1583520,363,107
1583535,314,107
1583542,316,107
1583542,318,107
1583559,289,107
1583575,321,107
1583586,301,107
1583593,298,107
1583593,318,107
1583617,285,107
1583626,308,107
1583637,303,107
1583644,286,107
1583644,317,107
1583668,289,107
1583677,301,107
1583689,315,107
1583693,290,107
1583708,325,107
1583719,310,107
1583725,307,107
1583740,331,107
1583750,298,107
1583759,321,107
1583770,317,107
1583781,301,107
1583791,332,107
1583802,305,107
1583809,318,107
1583822,328,107
1583827,298,107
1583843,327,107
1583852,310,107
1583860,308,107
1583871,334,107
1583876,305,107
1583893,330,107
1583905,329,107
1583910,312,107
1583925,344,107
1583935,315,107
1583943,324,107
1583943,333,107
1583960,301,107
1583976,331,107
1583986,314,107
1583992,309,107
1584006,335,107
1584011,307,107
1584026,331,107
1584038,328,107
1584048,310,107
1584058,344,107
1584068,314,107
1584076,322,107
1584089,335,107
1584099,306,107
1584109,336,107
1584114,317,107
1584126,312,107
1584140,338,107
1584143,308,107
1584159,330,107
1584171,326,107
1584176,308,107
1584191,339,107
1584192,312,107
1584209,324,107
1584222,349,107
1584233,327,107
1584242,355,107
1584253,333,107
1584259,321,107
1584274,339,107
1584284,305,107
1584293,324,107
1584304,320,107
1584315,299,107
1584324,331,107
1584335,301,107
1584343,302,107
1584343,407,105
1584360,635,105
1584376,659,105
1584376,452,105
1584393,191,105
1584408,308,105
1584417,288,105
1584426,303,105
1584426,303,105
1584448,285,105
1584458,318,105
1584469,295,105
1584477,304,105
1584477,319,105
1584499,297,105
1584510,332,105
1584520,323,105
1584526,321,105
1584541,351,105
1584543,322,105
1584560,345,105
1584566,349,105
1584576,333,105
1584592,372,105
1584602,355,105
1584610,374,105
1584623,406,105
1584627,396,105
1584643,441,105
1584653,436,105
1584660,431,105
1584674,449,105
1584685,392,105
1584693,377,105
1584706,346,105
1584709,297,105
1584725,314,105
1584736,281,105
1584743,286,105
1584756,305,105
1584766,281,105
1584776,314,105
1584787,304,105
1584792,297,105
1584808,326,105
1584811,298,105
1584827,316,105
1584827,318,105
1584843,299,105
1584859,333,105
1584869,312,105
1584876,322,105
1584889,341,105
1584892,312,105
1584910,341,105
1584918,333,105
1584927,326,105
1584941,353,105
1584951,320,105
1584959,336,105
1584971,338,105
1584976,314,105
1584992,343,105
1585003,317,105
1585009,323,105
1585023,344,105
1585033,315,105
1585043,345,105
1585054,335,105
1585060,323,105
1585074,353,105
1585085,323,105
1585093,340,105
1585104,344,105
1585115,318,105
1585126,349,105
1585127,328,105
1585142,330,105
1585157,351,105
1585160,318,105
1585176,344,105
1585187,343,105
1585198,339,105
1585207,368,105
1585217,334,105
1585226,350,105
1585238,347,105
1585243,317,105
1585259,347,105
1585265,325,105
1585275,326,105
1585290,343,105
1585293,311,105
1585309,333,105
1585320,325,105
1585325,458,108
1585341,659,108
1585352,658,108
1585360,331,108
1585372,245,108
1585383,298,108
1585393,329,108
1585403,304,108
1585413,308,108
1585423,330,108
1585427,300,108
1585443,324,108
1585454,316,108
1585462,304,108
1585475,338,108
1585485,312,108
1585493,331,108
1585505,343,108
1585510,319,108
1585526,355,108
1585536,338,108
1585543,343,108
1585543,366,108
1585567,342,108
1585576,379,108
1585588,385,108
1585593,387,108
1585608,430,108
1585618,412,108
1585626,431,108
1585639,435,108
1585649,388,108
1585659,386,108
1585670,333,108
1585677,306,108
1585691,309,108
1585701,268,108
1585709,289,108
1585720,284,108
1585731,269,108
1585742,300,108
1585751,273,108
1585760,287,108
1585773,296,108
1585783,268,108
1585793,302,108
1585803,285,108
1585810,287,108
1585824,311,108
1585833,278,108
1585842,303,108
1585855,297,108
1585860,279,108
1585875,312,108
1585883,286,108
1585892,299,108
1585906,309,108
1585909,284,108
1585926,316,108
1585937,298,108
1585942,297,108
1585957,318,108
1585968,287,108
1585976,309,108
1585988,305,108
1585993,286,108
1586009,319,108
1586014,291,108
1586027,304,108
1586040,316,108
1586043,290,108
1586059,323,108
1586070,306,108
1586077,302,108
1586077,326,108
1586101,297,108
1586110,321,108
1586121,317,108
1586126,297,108
1586142,330,108
1586152,301,108
1586159,315,108
1586173,330,108
1586176,303,108
1586192,335,108
1586204,320,108
1586209,318,108
1586224,342,108
1586234,309,108
1586243,332,108
1586255,328,108
1586265,312,108
1586276,343,108
1586285,315,108
1586292,328,108
1586306,341,108
1586313,310,108
1586326,343,108
1586338,339,108
1586344,332,108
1586357,351,108
1586368,320,108
1586375,337,108
1586388,330,108
1586398,310,108
1586409,340,108
1586410,313,108
1586426,325,108
1586440,336,108
1586447,300,108
1586460,353,108
1586470,517,108
1586481,658,108
1586491,656,108
1586501,254,108
1586510,270,108
1586521,325,108
1586532,294,108
1586542,322,108
1586553,299,108
1586562,312,108
1586573,329,108
1586583,300,108
1586593,329,108
1586603,314,108
1586610,312,108
1586625,342,108
1586635,317,108
1586642,345,108
1586655,346,108
1586666,325,108
1586676,358,108
1586686,338,108
1586693,351,108
1586707,370,108
1586717,345,108
1586726,381,108
1586737,382,108
1586743,392,108
1586743,433,108
1586768,413,108
1586776,434,108
1586789,420,108
1586800,372,108
1586809,373,108
1586819,322,108
1586826,312,108
1586840,314,108
1586851,280,108
1586860,308,108
1586871,294,108
1586876,286,108
1586892,314,108
1586902,282,108
1586910,301,108
1586910,301,108
1586927,281,108
1586942,316,108
1586953,293,108
1586960,299,108
1586973,316,108
1586984,286,108
1586993,315,108
1587005,301,108
1587010,293,108
1587025,321,108
1587035,289,108
1587043,309,108
1587055,314,108
1587066,294,108
1587075,326,108
1587086,301,108
1587092,305,108
1587092,320,108
1587117,289,108
1587126,320,108
1587126,308,108
1587143,301,108
1587159,334,108
1587169,308,108
1587175,328,108
1587189,333,108
1587193,310,108
1587209,340,108
1587217,313,108
1587225,317,108
1587241,336,108
1587250,304,108
1587259,336,108
1587271,329,108
1587276,322,108
1587291,352,108
1587302,323,108
1587310,341,108
1587323,346,108
1587332,322,108
1587343,355,108
1587353,331,108
1587359,335,108
1587374,353,108
1587384,322,108
1587393,349,108
1587405,338,108
1587410,325,108
1587425,353,108
1587436,324,108
1587443,341,108
1587457,347,108
1587459,326,108
1587476,356,108
1587487,334,108
1587493,339,108
1587507,360,108
1587518,329,108
1587526,357,108
1587539,344,108
1587548,325,108
1587559,363,108
1587569,342,108
1587576,347,108
1587589,348,108
1587600,316,108
1587610,338,108
1587620,312,108
1587626,309,108
1587641,330,108
1587651,297,108
1587660,324,108
1587672,313,108
1587677,291,108
1587693,412,105
1587702,634,105
1587710,658,105
1587723,444,105
1587730,182,105
1587742,304,105
1587754,292,105
1587762,285,105
1587774,310,105
1587784,281,105
1587793,312,105
1587793,305,105
1587816,288,105
1587825,317,105
1587836,290,105
1587843,311,105
1587857,325,105
1587866,302,105
1587876,338,105
1587887,321,105
1587893,324,105
1587893,352,105
1587910,325,105
1587926,356,105
1587939,358,105
1587943,350,105
1587958,394,105
1587967,379,105
1587976,407,105
1587990,427,105
1588000,401,105
1588010,426,105
1588015,386,105
1588026,351,105
1588041,344,105
1588052,289,105
1588060,298,105
1588069,280,105
1588076,258,105
1588092,289,105
1588103,264,105
1588110,280,105
1588123,297,105
1588126,275,105
1588142,309,105
1588154,290,105
1588159,286,105
1588174,311,105
1588185,284,105
1588192,309,105
1588206,306,105
1588215,293,105
1588226,324,105
1588235,298,105
1588243,311,105
1588256,325,105
1588267,298,105
1588277,329,105
1588287,313,105
1588293,309,105
1588308,333,105
1588310,302,105
1588328,325,105
1588338,324,105
1588343,308,105
1588359,341,105
1588369,314,105
1588376,326,105
1588390,339,105
1588401,312,105
1588409,344,105
1588421,330,105
1588426,327,105
1588442,352,105
1588452,320,105
1588459,345,105
1588472,344,105
1588483,325,105
1588493,359,105
1588503,332,105
1588509,343,105
1588524,357,105
1588534,327,105
1588543,358,105
1588555,344,105
1588564,336,105
1588575,361,105
1588585,339,105
1588592,375,105
1588606,368,105
1588616,344,105
1588626,368,105
1588637,331,105
1588643,337,105
1588657,349,105
1588667,320,105
1588676,346,105
1588676,332,105
1588693,328,105
1588708,345,105
1588719,375,105
1588726,630,108
1588726,659,108
1588749,567,108
1588759,236,108
1588768,284,108
1588776,322,108
1588791,329,108
1588793,298,108
1588809,332,108
1588822,319,108
1588826,313,108
1588842,340,108
1588843,308,108
1588860,331,108
1588873,336,108
1588883,320,108
1588892,356,108
1588903,336,108
1588909,348,108
1588924,369,108
1588926,343,108
1588944,376,108
1588955,366,108
1588965,363,108
1588975,400,108
1588985,382,108
1588995,414,108
1589006,428,108
1589013,415,108
1589026,450,108
1589037,418,108
1589043,395,108
1589057,380,108
1589067,319,108
1589077,320,108
1589088,290,108
1589098,271,108
1589109,295,108
1589113,264,108
1589126,287,108
1589140,294,108
1589143,274,108
1589160,311,108
1589170,289,108
1589181,294,108
1589192,314,108
1589201,282,108
1589210,309,108
1589214,298,108
1589232,286,108
1589242,315,108
1589253,285,108
1589259,302,108
1589273,308,108
1589283,285,108
1589293,318,108
1589304,296,108
1589314,299,108
1589324,317,108
1589334,286,108
1589342,314,108
1589355,306,108
1589365,293,108
1589376,321,108
1589377,292,108
1589393,310,108
1589393,314,108
1589411,292,108
1589426,326,108
1589437,303,108
1589443,307,108
1589443,328,108
1589469,297,108
1589476,324,108
1589476,313,108
1589499,301,108
1589508,330,108
1589520,301,108
1589526,316,108
1589540,324,108
1589543,300,108
1589559,334,108
1589571,312,108
1589577,316,108
1589577,338,108
1589602,306,108
1589610,334,108
1589622,326,108
1589625,313,108
1589642,342,108
1589653,312,108
1589663,328,108
1589674,335,108
1589676,309,108
1589693,342,108
1589704,321,108
1589710,321,108
1589725,342,108
1589735,308,108
1589742,336,108
1589755,331,108
1589765,317,108
1589776,350,108
1589776,322,108
1589795,338,108
1589807,350,108
1589809,321,108
1589827,348,108
1589839,334,108
1589843,345,108
1589859,360,108
1589864,323,108
1589876,349,108
1589876,334,108
1589893,316,108
1589909,345,108
1589920,315,108
1589926,328,108
1589940,335,108
1589950,307,108
1589959,331,108
1589971,342,108
1589982,532,106
1589992,659,106
1590001,644,106
1590009,259,106
1590023,278,106
1590033,311,106
1590043,328,106
1590054,297,106
1590059,309,106
1590073,320,106
1590083,292,106
1590092,324,106
1590104,307,106
1590115,307,106
1590125,337,106
1590136,310,106
1590143,339,106
1590143,341,106
1590166,326,106
1590177,360,106
1590187,335,106
1590193,349,106
1590207,366,106
1590218,345,106
1590226,385,106
1590238,377,106
1590248,390,106
1590259,428,106
1590269,406,106
1590277,434,106
1590277,432,106
1590300,401,106
1590309,408,106
1590320,355,106
1590327,341,106
1590327,330,106
1590351,284,106
1590359,305,106
1590372,286,106
1590377,279,106
1590392,305,106
1590402,276,106
1590411,302,106
1590422,307,106
1590433,289,106
1590444,327,106
1590454,300,106
1590460,306,106
1590473,314,106
1590477,282,106
1590493,310,106
1590505,295,106
1590510,290,106
1590519,320,106
1590527,292,106
1590542,316,106
1590542,315,106
1590567,295,106
1590576,325,106
1590578,297,106
1590592,303,106
1590608,318,106
1590610,289,106
1590626,321,106
1590626,308,106
1590649,301,106
1590659,329,106
1590667,299,106
1590677,321,106
1590677,322,106
1590700,301,106
1590709,332,106
1590720,307,106
1590727,315,106
1590741,332,106
1590751,302,106
1590759,333,106
1590772,319,106
1590782,313,106
1590792,340,106
1590803,310,106
1590809,331,106
1590824,331,106
1590827,312,106
1590842,345,106
1590853,320,106
1590859,326,106
1590875,343,106
1590885,312,106
1590892,340,106
1590906,325,106
1590915,314,106
1590926,343,106
1590936,312,106
1590943,333,106
1590957,337,106
1590967,316,106
1590976,349,106
1590987,324,106
1590997,330,106
1591008,350,106
1591019,318,106
1591027,346,106
1591027,332,106
1591043,322,106
1591059,352,106
1591069,324,106
1591080,341,106
1591085,349,106
1591101,338,106
1591110,374,106
1591119,338,106
1591127,343,106
1591141,354,106
1591151,315,106
1591161,343,106
1591172,329,106
1591178,316,106
1591193,345,106
1591204,315,106
1591210,333,106
1591218,328,106
1591227,390,106
1591243,655,101
1591255,659,101
1591260,488,101
1591275,240,101
1591285,292,101
1591293,334,101
1591293,309,101
1591312,297,101
1591326,327,101
1591337,298,101
1591342,318,101
1591342,324,101
1591360,302,101
1591377,338,101
1591388,321,101
1591393,328,101
1591393,351,101
1591419,323,101
1591427,351,101
1591439,341,101
1591443,332,101
1591459,366,101
1591467,340,101
1591478,366,101
1591490,381,101
1591492,370,101
1591509,416,101
1591521,405,101
1591532,414,101
1591542,437,101
1591552,401,101
1591559,408,101
1591573,367,101
1591578,322,101
1591593,326,101
1591593,279,101
1591609,285,101
1591623,292,101
1591626,266,101
1591643,295,101
1591655,274,101
1591661,274,101
1591675,300,101
1591686,270,101
1591692,296,101
1591706,291,101
1591717,281,101
1591726,313,101
1591737,283,101
1591743,299,101
1591757,307,101
1591768,279,101
1591778,311,101
1591778,291,101
1591793,290,101
1591809,309,101
1591819,276,101
1591826,302,101
1591839,297,101
1591850,281,101
1591859,313,101
1591870,285,101
1591878,298,101
1591878,306,101
1591901,281,101
1591909,312,101
1591921,292,101
1591932,292,101
1591942,315,101
1591952,285,101
1591960,310,101
1591973,305,101
1591983,290,101
1591993,322,101
1592004,294,101
1592012,308,101
1592025,319,101
1592034,290,101
1592043,319,101
1592043,300,101
1592059,299,101
1592076,324,101
1592087,296,101
1592093,322,101
1592107,319,101
1592116,304,101
1592126,338,101
1592137,313,101
1592143,327,101
1592158,337,101
1592168,312,101
1592177,345,101
1592188,328,101
1592198,323,101
1592209,347,101
1592220,318,101
1592226,342,101
1592240,340,101
1592243,339,101
1592260,374,101
1592270,341,101
1592281,352,101
1592291,355,101
1592302,324,101
1592309,354,101
1592322,338,101
1592332,334,101
1592343,356,101
1592343,326,101
1592359,343,101
1592373,352,101
1592379,500,101
1592393,659,101
1592404,658,101
1592410,302,101
1592416,270,101
1592427,313,101
1592442,343,101
1592455,321,101
1592466,318,101
1592475,344,101
1592486,314,101
1592493,336,101
1592506,334,101
1592518,320,101
1592526,356,101
1592538,333,101
1592543,348,101
1592559,368,101
1592568,347,101
1592576,382,101
1592589,367,101
1592600,364,101
1592609,391,101
1592620,362,101
1592630,389,101
1592640,402,101
1592650,403,101
1592659,455,101
1592663,445,101
1592679,468,101
1592692,487,101
1592701,442,101
1592709,441,101
1592722,386,101
1592732,343,101
1592742,340,101
1592753,288,101
1592763,302,101
1592773,301,101
1592784,287,101
1592793,325,101
1592805,307,101
