Timestamp,ECGValue,BPM
1398534,354,79
1398541,383,79
1398554,366,79
1398565,408,79
1398574,406,79
1398585,401,79
1398591,433,79
1398606,397,79
1398616,396,79
1398624,374,79
1398636,326,79
1398647,338,79
1398657,301,79
1398668,295,79
1398677,311,79
1398688,277,79
1398698,305,79
1398708,298,79
1398708,288,79
1398729,321,79
1398739,294,79
1398741,315,79
1398757,324,79
1398771,296,79
1398780,327,79
1398790,303,79
1398801,302,79
1398807,324,79
1398822,292,79
1398832,322,79
1398840,313,79
1398852,300,79
1398863,330,79
1398873,299,79
1398884,315,79
1398891,323,79
1398891,297,79
1398907,332,79
1398924,311,79
1398924,313,79
1398941,336,79
1398955,304,79
1398965,333,79
1398974,326,79
1398985,312,79
1398991,342,79
1399006,310,79
1399016,324,79
1399025,330,79
1399037,300,79
1399047,334,79
1399057,312,79
1399068,312,79
1399077,337,79
1399088,304,79
1399098,334,79
1399108,329,79
1399119,314,79
1399129,347,79
1399140,317,79
1399149,331,79
1399158,343,79
1399170,317,79
1399181,349,79
1399191,329,79
1399202,326,79
1399207,349,79
1399222,314,79
1399232,340,79
1399241,334,79
1399253,316,79
1399263,349,79
1399273,319,79
1399283,333,79
1399292,343,79
1399304,313,79
1399314,347,79
1399324,327,79
1399335,326,79
1399341,349,79
1399341,319,79
1399358,358,79
1399374,350,79
1399386,332,79
1399391,362,79
1399407,325,79
1399417,338,79
1399423,348,79
1399437,316,79
1399448,347,79
1399457,329,79
1399468,325,79
1399477,338,79
1399489,346,79
1399491,579,70
1399508,659,70
1399517,623,70
1399530,268,70
1399540,277,70
1399551,326,70
1399557,328,70
1399571,294,70
1399578,329,70
1399590,317,70
1399601,319,70
1399607,350,70
1399622,318,70
1399633,344,70
1399640,347,70
1399653,330,70
1399663,363,70
1399674,331,70
1399684,340,70
1399690,348,70
1399704,315,70
1399715,348,70
1399724,342,70
1399725,347,70
1399746,392,70
1399756,376,70
1399766,413,70
1399775,422,70
1399786,410,70
1399796,441,74
1399806,401,74
1399816,385,74
1399823,371,74
1399823,317,74
1399840,328,74
1399858,304,74
1399865,287,74
1399879,313,74
1399889,284,74
1399898,308,74
1399910,314,74
1399918,296,74
1399930,332,74
1399932,303,74
1399948,309,74
1399961,328,74
1399972,298,74
1399982,333,74
1399991,320,74
1399998,314,74
1400012,344,74
1400023,311,74
1400032,335,74
1400044,335,74
1400053,310,74
1400063,342,74
1400074,313,74
1400081,317,74
1400094,335,74
1400098,303,74
1400115,331,74
1400124,318,74
1400131,308,74
1400146,336,74
1400156,308,74
1400165,333,74
1400172,336,74
1400182,314,74
1400182,351,74
1400198,328,74
1400215,333,74
1400228,351,74
1400232,322,74
1400248,349,74
1400259,332,74
1400265,318,74
1400280,345,74
1400282,310,74
1400298,327,74
1400298,331,74
1400320,309,74
1400330,342,74
1400342,318,74
1400348,325,74
1400362,342,74
1400371,319,74
1400382,363,74
1400392,352,74
1400398,335,74
1400413,364,74
1400423,322,74
1400432,335,74
1400443,334,74
1400454,309,74
1400464,336,74
1400465,312,74
1400481,314,74
1400481,325,74
1400505,295,74
1400514,473,71
1400525,659,71
1400532,657,71
1400546,318,71
1400557,219,71
1400565,309,71
1400577,319,71
1400582,290,71
1400598,325,71
1400599,303,71
1400615,305,71
1400625,329,71
1400639,302,71
1400648,336,71
1400659,331,71
1400665,318,71
1400673,344,71
1400690,313,71
1400697,328,71
1400710,334,71
1400715,308,71
1400731,337,71
1400741,317,71
1400748,328,71
1400762,365,71
1400765,353,71
1400781,401,71
1400793,407,71
1400797,402,71
1400813,433,71
1400823,392,71
1400831,382,71
1400844,359,71
1400854,305,71
1400864,315,71
1400875,280,71
1400882,276,71
1400882,294,71
1400897,261,71
1400915,288,71
1400926,280,71
1400936,266,71
1400947,301,71
1400956,271,71
1400965,290,71
1400976,300,71
1400981,276,71
1400998,312,71
1401008,292,71
1401016,296,71
1401028,321,71
1401038,291,71
1401047,320,71
1401059,314,71
1401064,298,71
1401080,329,71
1401091,298,71
1401097,313,71
1401110,325,71
1401115,298,71
1401132,335,71
1401135,316,71
1401148,312,71
1401161,338,71
1401172,308,71
1401181,335,71
1401181,331,71
1401198,316,71
1401213,345,71
1401223,320,71
1401231,334,71
1401245,345,71
1401255,317,71
1401265,350,71
1401274,333,71
1401281,328,71
1401295,350,71
1401299,318,71
1401315,348,71
1401327,343,71
1401337,327,71
1401347,358,71
1401357,327,71
1401365,341,71
1401372,350,71
1401382,321,71
1401397,352,71
1401409,332,71
1401415,327,71
1401422,353,71
1401439,323,71
1401448,348,71
1401460,345,71
1401465,339,71
1401480,370,71
1401490,334,71
1401498,344,71
1401511,353,71
1401521,318,71
1401532,347,71
1401542,328,71
1401548,323,71
1401548,347,71
1401573,321,71
1401581,336,71
1401593,344,71
1401598,492,68
1401614,659,68
1401622,657,68
1401633,305,68
1401645,277,68
1401655,309,68
1401665,327,68
1401675,307,68
1401682,303,68
1401682,332,68
1401706,304,68
1401715,328,68
1401723,326,68
1401732,308,68
1401732,343,68
1401758,322,68
1401765,338,68
1401778,355,68
1401788,326,68
1401798,359,68
1401808,344,68
1401815,333,68
1401829,364,68
1401832,341,68
1401848,375,68
1401860,388,68
1401870,379,68
1401880,422,68
1401891,401,68
1401898,413,68
1401912,416,74
1401917,359,74
1401931,362,74
1401943,324,74
1401948,300,74
1401963,317,74
1401973,277,74
1401982,298,74
1401982,299,74
1402004,278,74
1402014,314,74
1402024,291,74
1402031,300,74
1402045,317,74
1402053,287,74
1402064,319,74
1402073,304,74
1402081,295,74
1402096,322,74
1402098,289,74
1402115,312,74
1402127,314,74
1402132,290,74
1402148,326,74
1402158,300,74
1402165,309,74
1402171,326,74
1402189,295,74
1402198,325,74
1402210,313,74
1402215,303,74
1402230,330,74
1402240,300,74
1402248,321,74
1402260,322,74
1402271,300,74
1402281,334,74
1402291,310,74
1402298,318,74
1402311,336,74
1402316,305,74
1402331,337,74
1402343,324,74
1402348,313,74
1402348,341,74
1402373,306,74
1402382,325,74
1402395,328,74
1402398,303,74
1402415,337,74
1402425,315,74
1402431,320,74
1402445,342,74
1402455,313,74
1402464,345,74
1402476,335,74
1402486,323,74
1402497,353,74
1402499,319,74
1402515,336,74
1402528,340,74
1402537,314,74
1402547,348,74
1402558,323,74
1402565,328,74
1402579,347,74
1402589,317,74
1402598,345,74
1402610,334,74
1402620,328,74
1402630,370,74
1402641,330,74
1402648,347,74
1402661,347,74
1402671,317,74
1402682,348,74
1402691,322,74
1402699,326,74
1402699,343,74
1402723,311,74
1402731,339,74
1402743,321,74
1402753,371,74
1402763,622,77
1402774,659,77
1402782,565,77
1402782,241,77
1402805,278,77
1402814,336,77
1402825,300,77
1402831,303,77
1402845,330,77
1402856,300,77
1402865,332,77
1402874,326,77
1402887,310,77
1402897,344,77
1402907,319,77
1402915,342,77
1402927,355,77
1402938,330,77
1402948,360,77
1402958,334,77
1402965,336,77
1402979,356,77
1402989,329,77
1402998,367,77
1403010,371,77
1403020,373,77
1403030,420,77
1403041,400,77
1403047,425,77
1403061,434,77
1403072,392,77
1403081,401,87
1403093,350,87
1403101,329,87
1403113,334,87
1403123,290,87
1403132,310,87
1403143,301,87
1403154,284,87
1403164,317,87
1403175,292,87
1403182,305,87
1403195,315,87
1403198,285,87
1403215,315,87
1403226,294,87
1403231,293,87
1403246,321,87
1403256,294,87
1403266,320,87
1403276,311,87
1403283,295,87
1403297,325,87
1403308,296,87
1403315,310,87
1403319,316,87
1403331,287,87
1403349,320,87
1403358,300,87
1403365,299,87
1403380,326,87
1403390,296,87
1403398,322,87
1403410,317,87
1403420,303,87
1403430,336,87
1403441,310,87
1403448,329,87
1403462,338,87
1403472,307,87
1403481,339,87
1403492,322,87
1403498,318,87
1403513,343,87
1403523,309,87
1403531,334,87
1403544,331,87
1403548,313,87
1403564,348,87
1403575,320,87
1403583,331,87
1403595,342,87
1403606,314,87
1403615,343,87
1403626,329,87
1403631,329,87
1403647,356,87
1403656,320,87
1403665,344,87
1403677,345,87
1403683,338,87
1403698,366,87
1403709,338,87
1403714,348,87
1403728,356,87
1403739,327,87
1403748,354,87
1403760,333,87
1403765,324,87
1403781,349,87
1403790,318,87
1403798,331,87
1403798,356,87
1403814,540,81
1403831,659,81
1403832,651,81
1403848,245,81
1403862,281,81
1403872,303,81
1403881,331,81
1403893,313,81
1403902,311,81
1403913,340,81
1403919,311,81
1403931,337,81
1403944,339,81
1403954,328,81
1403965,367,81
1403975,340,81
1403983,350,81
1403995,365,81
1404005,332,81
1404014,360,81
1404026,342,81
1404037,333,81
1404046,363,81
1404056,340,81
1404065,378,81
1404078,396,81
1404083,393,81
1404098,438,81
1404108,419,81
1404114,426,81
1404129,424,86
1404131,361,86
1404147,358,86
1404147,316,86
1404170,288,86
1404180,300,86
1404183,262,86
1404198,282,86
1404211,279,86
1404220,259,86
1404231,294,86
1404231,267,86
1404248,276,86
1404262,291,86
1404273,263,86
1404281,297,86
1404294,285,86
1404304,283,86
1404314,316,86
1404323,288,86
1404331,314,86
1404344,317,86
1404355,296,86
1404364,332,86
1404375,306,86
1404384,311,86
1404396,326,86
1404406,295,86
1404415,324,86
1404415,306,86
1404431,295,86
1404447,321,86
1404458,288,86
1404464,306,86
1404478,307,86
1404488,286,86
1404498,319,86
1404509,293,86
1404519,300,86
1404529,320,86
1404539,294,86
1404548,328,86
1404551,321,86
1404566,314,86
1404580,347,86
1404584,315,86
1404598,336,86
1404598,338,86
1404622,313,86
1404631,346,86
1404642,322,86
1404648,326,86
1404648,356,86
1404673,334,86
1404682,354,86
1404693,340,86
1404703,325,86
1404714,349,86
1404725,317,86
1404731,336,86
1404745,343,86
1404756,318,86
1404766,353,86
1404775,330,86
1404784,324,86
1404796,409,92
1404806,611,92
1404816,659,92
1404827,572,92
1404836,218,92
1404848,319,92
1404858,310,92
1404864,319,92
1404878,326,92
1404889,305,92
1404898,340,92
1404909,319,92
1404915,323,92
1404930,345,92
1404940,316,92
1404948,351,92
1404961,344,92
1404970,340,92
1404981,373,92
1404991,341,92
1404997,356,92
1405011,360,92
1405021,336,92
1405031,373,92
1405043,356,92
1405048,371,92
1405048,408,92
1405073,384,92
1405081,424,92
1405084,419,92
1405099,402,107
1405114,412,107
1405125,353,107
1405131,344,107
1405144,330,107
1405148,291,107
1405165,315,107
1405176,288,107
1405186,288,107
1405196,309,107
1405198,279,107
1405215,308,107
1405227,303,107
1405231,293,107
1405247,326,107
1405258,296,107
1405265,314,107
1405269,322,107
1405284,296,107
1405298,330,107
1405298,306,107
1405320,305,107
1405330,325,107
1405341,291,107
1405347,317,107
1405361,312,107
1405370,297,107
1405381,326,107
1405384,299,107
1405398,316,107
1405412,326,107
1405423,299,107
1405432,334,107
1405443,313,107
1405453,315,107
1405463,338,107
1405470,305,107
1405481,333,107
1405485,326,107
1405505,307,107
1405515,337,107
1405523,307,107
1405530,324,107
1405546,334,107
1405548,308,107
1405564,342,107
1405577,323,107
1405584,321,107
1405597,343,107
1405607,309,107
1405615,334,107
1405628,328,107
1405638,311,107
1405648,344,107
1405658,316,107
1405667,332,107
1405667,344,107
1405685,318,107
1405698,351,107
1405710,330,107
1405720,326,107
1405730,350,107
1405740,315,107
1405748,341,107
1405761,336,107
1405770,319,107
1405781,348,107
1405792,320,107
1405798,332,107
1405813,341,107
1405823,322,107
1405832,366,107
1405843,340,107
1405853,337,107
1405864,360,107
1405874,323,107
1405881,350,107
1405885,345,107
1405905,326,107
1405914,358,107
1405926,327,107
1405936,338,107
1405945,339,107
1405956,355,107
1405964,598,97
1405969,659,97
1405987,609,97
1405997,263,97
1406008,276,97
1406015,338,97
1406021,320,97
1406038,302,97
1406048,339,97
1406059,313,97
1406064,326,97
1406079,337,97
1406085,305,97
1406097,338,97
1406110,325,97
1406120,324,97
1406131,353,97
1406141,324,97
1406148,347,97
1406162,345,97
1406172,324,97
1406182,361,97
1406192,341,97
1406198,358,97
1406213,384,97
1406217,367,97
1406231,410,97
1406244,404,97
1406248,406,97
1406264,431,97
1406274,383,97
1406284,382,97
1406284,355,97
1406305,314,97
1406315,332,97
1406325,294,97
1406332,299,97
1406346,311,97
1406357,280,97
1406365,311,97
1406377,298,97
1406387,289,97
1406398,317,97
1406407,284,97
1406416,306,97
1406428,306,97
1406439,283,97
1406448,317,97
1406460,293,97
1406465,300,97
1406480,318,97
1406490,290,97
1406498,321,97
1406511,306,97
1406521,296,97
1406530,322,97
1406542,286,97
1406548,305,97
1406562,306,97
1406565,286,97
1406581,324,97
1406593,297,97
1406598,305,97
1406613,326,97
1406623,294,97
1406631,328,97
1406643,317,97
1406654,310,97
1406665,341,97
1406676,311,97
1406681,331,97
1406696,332,97
1406705,311,97
1406715,346,97
1406726,324,97
1406732,333,97
1406747,345,97
1406757,313,97
1406765,342,97
1406778,328,97
1406787,317,97
1406797,343,97
1406808,310,97
1406815,335,97
1406829,340,97
1406839,319,97
1406847,350,97
1406860,329,97
1406865,331,97
1406865,353,97
1406890,324,97
1406899,354,97
1406911,339,97
1406915,331,97
1406931,362,97
1406941,331,97
1406947,348,97
1406962,359,97
1406973,345,97
1406981,374,97
1406994,341,97
1407003,342,97
1407014,353,97
1407024,321,97
1407031,349,97
1407044,343,97
1407055,331,97
1407065,357,97
1407075,324,97
1407085,331,97
1407096,388,97
1407106,598,91
1407115,659,91
1407127,601,91
1407131,217,91
1407147,304,91
1407158,305,91
1407165,323,91
1407177,312,91
1407188,304,91
1407198,335,91
1407209,306,91
1407214,327,91
1407229,338,91
1407239,320,91
1407248,360,91
1407260,339,91
1407270,341,91
1407280,363,91
1407290,330,91
1407298,354,91
1407311,341,91
1407315,323,91
1407331,358,91
1407342,335,91
1407349,366,91
1407363,391,91
1407368,381,91
1407382,425,91
1407393,414,91
1407404,413,91
1407414,420,103
1407425,360,103
1407432,359,103
1407432,325,103
1407455,289,103
1407465,309,103
1407475,273,103
1407486,285,103
1407486,289,103
1407498,264,103
1407515,294,103
1407527,269,103
1407532,267,103
1407548,287,103
1407558,252,103
1407565,281,103
1407578,278,103
1407586,272,103
1407598,308,103
1407609,284,103
1407616,306,103
1407625,319,103
1407640,298,103
1407648,331,103
1407648,309,103
1407670,308,103
1407681,323,103
1407686,286,103
1407698,311,103
1407711,299,103
1407722,280,103
1407731,308,103
1407743,277,103
1407749,290,103
1407749,299,103
1407765,276,103
1407782,313,103
1407794,298,103
1407804,301,103
1407814,327,103
1407824,301,103
1407832,330,103
1407844,329,103
1407855,316,103
1407865,348,103
1407869,318,103
1407886,333,103
1407896,338,103
1407898,311,103
1407915,342,103
1407923,321,103
1407938,320,103
1407948,342,103
1407958,314,103
1407964,340,103
1407978,339,103
1407986,338,103
1407998,372,103
1407998,338,103
1408015,353,103
1408030,356,103
1408040,328,103
1408048,357,103
1408060,338,103
1408069,335,103
1408081,355,103
1408091,324,103
1408098,341,103
1408112,337,103
1408116,465,96
1408131,659,96
1408143,658,96
1408148,355,96
1408163,264,96
1408174,311,96
1408181,337,96
1408194,314,96
1408199,312,96
1408215,337,96
1408225,308,96
1408231,335,96
1408246,333,96
1408248,318,96
1408264,352,96
1408276,329,96
1408286,344,96
1408296,358,96
1408307,337,96
1408315,367,96
1408318,346,96
1408332,343,96
1408348,369,96
1408348,344,96
1408365,381,96
1408374,393,96
1408386,392,96
1408398,434,96
1408410,414,96
1408417,426,106
1408431,428,106
1408440,375,106
1408448,377,106
1408461,335,106
1408466,310,106
1408481,325,106
1408492,287,106
1408499,307,106
1408499,307,106
1408523,289,106
1408531,321,106
1408543,297,106
1408548,308,106
1408564,321,106
1408574,293,106
1408582,325,106
1408587,306,106
1408598,298,106
1408615,324,106
1408626,292,106
1408632,315,106
1408646,315,106
1408656,295,106
1408665,328,106
1408672,303,106
1408687,312,106
1408697,328,106
1408708,297,106
1408715,325,106
1408724,313,106
1408732,306,106
1408748,333,106
1408759,304,106
1408765,327,106
1408779,329,106
1408787,309,106
1408798,342,106
1408798,316,106
1408820,325,106
1408830,337,106
1408832,307,106
1408849,337,106
1408862,323,106
1408871,316,106
1408881,345,106
1408892,314,106
1408898,335,106
1408898,336,106
1408924,314,106
1408932,347,106
1408944,320,106
1408954,326,106
1408964,344,106
1408975,316,106
1408981,347,106
1408995,336,106
1409005,328,106
1409014,353,106
1409025,322,106
1409031,342,106
1409046,345,106
1409057,324,106
1409066,358,106
1409066,334,106
1409087,342,106
1409097,360,106
1409107,331,106
1409116,356,106
1409128,341,106
1409139,344,106
1409147,382,106
1409159,343,106
1409165,364,106
1409180,363,106
1409187,335,106
1409200,365,106
1409210,340,106
1409221,346,106
1409231,363,106
1409241,330,106
1409247,351,106
1409262,332,106
1409271,437,96
1409281,659,96
1409293,659,96
1409299,408,96
1409314,236,96
1409323,294,96
1409332,328,96
1409344,299,96
1409348,310,96
1409365,335,96
1409375,310,96
1409381,344,96
1409395,339,96
1409405,330,96
1409415,362,96
1409415,335,96
1409431,355,96
1409447,362,96
1409448,333,96
1409465,357,96
1409477,329,96
1409488,324,96
1409498,343,96
1409509,319,96
1409515,356,96
1409529,359,96
1409539,362,96
1409548,404,96
1409559,386,96
1409566,408,96
1409580,410,104
1409590,370,104
1409599,375,104
1409611,332,104
1409618,316,104
1409632,325,104
1409641,289,104
1409648,313,104
1409662,301,104
1409673,288,104
1409681,317,104
1409693,284,104
1409699,297,104
1409699,301,104
1409724,272,104
1409732,304,104
1409745,282,104
1409755,288,104
1409765,316,104
1409775,289,104
1409781,322,104
1409795,314,104
1409806,299,104
1409815,327,104
1409826,290,104
1409831,301,104
1409847,304,104
1409857,275,104
1409865,305,104
1409878,285,104
1409882,289,104
1409898,313,104
1409909,285,104
1409914,316,104
1409929,314,104
1409939,306,104
1409948,339,104
1409960,312,104
1409965,325,104
1409981,329,104
1409990,299,104
1409998,333,104
1410011,312,104
1410021,315,104
1410031,335,104
1410032,302,104
1410048,330,104
1410061,326,104
1410073,309,104
1410081,338,104
1410094,310,104
1410098,325,104
1410114,338,104
1410124,309,104
1410132,340,104
1410145,332,104
1410155,342,104
1410164,357,104
1410175,323,104
1410182,344,104
1410196,331,104
1410198,312,104
1410215,343,104
1410226,311,104
1410237,324,104
1410247,333,104
1410258,303,104
1410265,326,104
1410279,354,104
1410288,588,97
1410298,659,97
1410309,566,97
1410317,218,97
1410317,277,97
1410340,293,97
1410348,320,97
1410361,286,97
1410365,308,97
1410380,322,97
1410391,290,97
1410398,334,97
1410398,315,97
1410422,320,97
1410431,349,97
1410442,312,97
1410448,340,97
1410463,335,97
1410474,316,97
1410481,353,97
1410494,315,97
1410505,331,97
1410515,347,97
1410524,324,97
1410531,379,97
1410545,375,97
1410555,391,97
1410565,429,97
1410576,396,97
1410581,421,97
1410596,398,97
1410607,348,97
1410615,358,97
1410627,303,97
1410637,300,97
1410648,302,97
1410658,266,97
1410665,300,97
1410678,276,97
1410689,271,97
1410697,298,97
1410710,261,97
1410715,294,97
1410730,292,97
1410739,273,97
1410749,314,97
1410749,281,97
1410765,299,97
1410780,318,97
1410791,288,97
1410798,325,97
1410798,304,97
1410822,300,97
1410831,330,97
1410831,290,97
1410852,321,97
1410863,318,97
1410873,297,97
1410882,335,97
1410894,302,97
1410904,318,97
1410914,331,97
1410925,296,97
1410931,331,97
1410945,311,97
1410956,306,97
1410965,335,97
1410975,297,97
1410982,329,97
1410997,328,97
1411007,309,97
1411015,350,97
1411015,321,97
1411038,336,97
1411047,352,97
1411048,321,97
1411066,358,97
1411079,338,97
1411082,331,97
1411097,359,97
1411097,318,97
1411115,342,97
1411130,342,97
1411132,316,97
1411147,354,97
1411162,324,97
1411165,337,97
1411181,354,97
1411192,321,97
1411198,359,97
1411212,344,97
1411222,336,97
1411231,368,97
1411244,340,97
1411248,377,97
1411265,368,97
1411274,340,97
1411282,375,97
1411294,332,97
1411305,337,97
1411315,351,97
1411325,313,97
1411331,348,97
1411346,333,97
1411348,323,97
1411365,346,97
1411375,370,97
1411382,619,91
1411398,659,91
1411399,588,91
1411415,267,91
1411428,292,91
1411438,328,91
1411448,333,91
1411459,298,91
1411464,337,91
1411480,323,91
1411490,316,91
1411498,347,91
1411510,308,91
1411520,337,91
1411530,347,91
1411541,326,91
1411548,369,91
1411561,341,91
1411572,350,91
1411581,365,91
1411593,329,91
1411597,366,91
1411612,355,91
1411623,351,91
1411631,396,91
1411643,372,91
1411654,408,91
1411664,421,91
1411675,401,91
1411681,438,91
1411691,392,91
1411698,371,91
1411715,367,91
1411724,307,91
1411731,327,91
1411747,301,91
1411750,285,91
1411765,317,91
1411777,282,91
1411783,306,91
1411797,312,91
1411808,285,91
1411815,324,91
1411829,296,91
1411839,301,91
1411847,324,91
1411859,286,91
1411865,319,91
1411880,305,91
1411890,293,91
1411898,330,91
1411910,295,91
1411921,318,91
1411931,324,91
1411941,295,91
1411948,330,91
1411962,300,91
1411971,303,91
1411982,328,91
1411993,292,91
1412003,329,91
1412013,318,91
1412023,307,91
1412031,344,91
1412044,308,91
1412055,327,91
1412065,334,91
1412075,301,91
1412081,339,91
1412094,310,91
1412105,316,91
1412115,342,91
1412126,307,91
1412131,342,91
1412147,330,91
1412156,314,91
1412164,350,91
1412177,311,91
1412188,328,91
1412198,336,91
1412199,305,91
1412215,345,91
1412225,321,91
1412239,324,91
1412248,348,91
1412259,313,91
1412265,349,91
1412273,338,91
1412291,319,91
1412298,357,91
1412311,319,91
1412315,338,91
1412331,347,91
1412342,316,91
1412348,355,91
1412363,329,91
1412372,327,91
1412382,352,91
1412392,311,91
1412398,342,91
1412413,333,91
1412424,318,91
1412432,356,91
1412444,321,91
1412454,349,91
1412464,371,91
1412475,330,91
1412482,366,91
1412495,337,91
1412506,331,91
1412515,352,91
1412526,311,91
1412532,341,91
1412532,332,91
1412557,312,91
1412565,347,91
1412578,299,91
1412581,374,91
1412598,603,80
1412608,658,80
1412614,585,80
1412629,227,80
1412631,286,80
1412647,339,80
1412647,290,80
1412664,322,80
1412681,318,80
1412691,299,80
1412698,339,80
1412698,300,80
1412714,315,80
1412732,329,80
1412742,303,80
1412748,349,80
1412762,330,80
1412772,330,80
1412781,358,80
1412793,322,80
1412804,351,80
1412814,349,80
1412824,337,80
1412831,381,80
1412845,359,80
1412855,389,80
1412865,415,80
1412876,394,80
1412881,441,80
1412895,419,80
1412906,403,86
1412916,406,86
1412926,340,86
1412937,345,86
1412947,322,86
1412957,288,86
1412965,319,86
1412978,281,86
1412988,294,86
1412998,309,86
1413009,278,86
1413014,317,86
1413029,298,86
1413032,296,86
1413048,324,86
1413060,286,86
1413065,314,86
1413080,308,86
1413091,286,86
1413099,324,86
1413112,290,86
1413121,306,86
1413131,323,86
1413142,287,86
1413148,326,86
1413148,303,86
1413165,295,86
1413182,324,86
1413191,286,86
1413199,315,86
1413214,312,86
1413225,290,86
1413231,330,86
1413245,298,86
1413256,309,86
1413264,324,86
1413275,288,86
1413281,326,86
1413296,308,86
1413308,306,86
1413314,341,86
1413327,305,86
1413338,337,86
1413348,335,86
1413357,313,86
1413365,349,86
1413378,314,86
1413388,324,86
1413397,340,86
1413410,302,86
1413414,339,86
1413430,319,86
1413440,312,86
1413447,343,86
1413461,306,86
1413465,333,86
1413481,332,86
1413490,307,86
1413499,349,86
1413512,321,86
1413522,333,86
1413531,350,86
1413543,317,86
1413548,356,86
1413548,339,86
1413573,331,86
1413581,361,86
1413594,321,86
1413599,347,86
1413614,345,86
1413622,321,86
1413631,362,86
1413645,332,86
1413656,343,86
1413665,364,86
1413676,344,86
1413686,390,86
1413697,365,86
1413707,355,86
1413715,382,86
1413727,335,86
1413738,357,86
1413748,355,86
1413759,327,86
1413765,363,86
1413778,330,86
1413788,337,86
1413798,348,86
1413810,396,86
1413815,658,89
1413830,659,89
1413832,524,89
1413849,255,89
1413861,294,89
1413865,342,89
1413882,332,89
1413891,305,89
1413898,347,89
1413912,321,89
1413922,333,89
1413931,350,89
1413944,320,89
1413951,362,89
1413964,350,89
1413973,341,89
1413981,373,89
1413994,328,89
1413998,346,89
1414014,343,89
1414025,312,89
1414031,350,89
1414045,330,89
1414056,348,89
1414065,384,89
1414077,366,89
1414087,418,89
1414096,415,89
1414107,413,89
1414115,446,89
1414128,390,89
1414138,385,89
1414148,357,89
1414159,304,89
1414165,324,89
1414179,283,89
1414189,284,89
1414198,304,89
1414209,268,89
1414218,303,89
1414229,287,89
1414240,272,89
1414248,307,89
1414261,269,89
1414265,294,89
1414281,302,89
1414293,279,89
1414298,322,89
1414313,297,89
1414323,302,89
1414331,323,89
1414343,284,89
1414348,312,89
1414364,290,89
1414369,271,89
1414381,303,89
1414394,266,89
1414405,290,89
1414414,298,89
1414426,274,89
1414431,315,89
1414447,291,89
1414456,297,89
1414465,321,89
1414477,285,89
1414487,319,89
1414497,306,89
1414508,287,89
1414516,322,89
1414528,284,89
1414532,306,89
1414548,313,89
1414559,286,89
1414565,325,89
1414574,300,89
1414582,306,89
1414598,328,89
1414610,289,89
1414615,325,89
1414624,317,89
1414641,301,89
1414648,333,89
1414662,303,89
1414671,336,89
1414681,339,89
1414692,301,89
1414698,337,89
1414713,304,89
1414723,307,89
1414731,330,89
1414744,295,89
1414754,332,89
1414764,322,89
1414765,305,89
1414781,333,89
1414795,311,89
1414806,498,81
1414815,659,81
1414826,655,81
1414831,293,81
1414847,234,81
1414856,301,81
1414864,322,81
1414877,282,81
1414888,321,81
1414898,317,81
1414907,304,81
1414916,344,81
1414928,310,81
1414939,334,81
1414949,345,81
1414949,318,81
1414965,362,81
1414980,339,81
1414989,341,81
1414998,366,81
1415010,327,81
1415021,356,81
1415031,347,81
1415042,336,81
1415048,382,81
1415062,358,81
1415072,393,81
1415081,416,81
1415093,393,81
1415103,435,81
1415113,401,85
1415124,377,85
1415131,376,85
1415144,314,85
1415154,325,85
1415164,303,85
1415166,281,85
1415181,314,85
1415196,279,85
1415199,301,85
1415215,313,85
1415226,285,85
1415231,328,85
1415246,305,85
1415257,303,85
1415264,330,85
1415277,292,85
1415288,323,85
1415298,315,85
1415299,298,85
1415315,338,85
1415329,304,85
1415332,320,85
1415349,331,85
1415360,298,85
1415364,338,85
1415380,316,85
1415382,314,85
1415398,341,85
1415398,304,85
1415415,336,85
1415431,330,85
1415442,311,85
1415448,348,85
1415448,311,85
1415473,328,85
1415482,342,85
1415493,311,85
1415499,348,85
1415514,325,85
1415524,324,85
1415532,354,85
1415532,318,85
1415548,351,85
1415564,345,85
1415575,325,85
1415581,360,85
1415596,323,85
1415606,336,85
1415615,349,85
1415627,314,85
1415632,353,85
1415632,333,85
1415657,328,85
1415665,358,85
1415674,318,85
1415682,348,85
1415698,344,85
1415709,323,85
1415715,362,85
1415728,330,85
1415739,345,85
1415748,360,85
1415748,326,85
1415770,364,85
1415780,341,85
1415791,336,85
1415798,364,85
1415798,323,85
1415822,350,85
1415832,353,85
1415843,343,85
1415848,371,85
1415863,336,85
1415872,345,85
1415882,355,85
1415893,317,85
1415904,353,85
1415914,332,85
1415924,325,85
1415931,353,85
1415945,312,85
1415949,333,85
1415964,411,79
1415975,626,79
1415981,659,79
1415994,499,79
1416007,225,79
1416015,321,79
1416024,301,79
1416031,330,79
1416048,314,79
1416058,311,79
1416064,344,79
1416078,306,79
1416089,332,79
1416098,329,79
1416098,308,79
1416115,354,79
1416129,328,79
1416140,343,79
1416148,359,79
1416160,320,79
1416171,355,79
1416181,338,79
1416191,334,79
1416198,367,79
1416212,339,79
1416222,375,79
1416231,384,79
1416242,370,79
1416248,420,79
1416248,396,79
1416272,409,85
1416282,417,85
1416293,358,85
1416304,371,85
1416314,332,85
1416325,306,85
1416331,327,85
1416331,281,85
1416348,304,85
1416365,302,85
1416376,278,85
1416382,317,85
1416396,286,85
1416406,296,85
1416414,314,85
1416427,276,85
1416438,314,85
1416448,296,85
1416458,289,85
1416466,324,85
1416479,287,85
1416488,316,85
1416498,321,85
1416509,296,85
1416515,333,85
1416530,300,85
1416540,305,85
1416548,322,85
1416561,284,85
1416571,323,85
1416581,308,85
1416592,300,85
1416598,335,85
1416612,298,85
1416615,324,85
1416632,325,85
1416642,299,85
1416653,335,85
1416663,305,85
1416674,314,85
1416681,338,85
1416694,305,85
1416699,342,85
1416714,329,85
1416724,320,85
1416731,352,85
1416746,316,85
1416748,341,85
1416765,344,85
1416776,315,85
1416787,351,85
1416796,320,85
1416798,327,85
1416814,348,85
1416828,311,85
1416832,346,85
1416848,332,85
1416858,322,85
1416865,356,85
1416879,319,85
1416889,343,85
1416898,347,85
1416910,319,85
1416920,359,85
1416931,329,85
1416941,338,85
1416948,359,85
1416948,321,85
1416971,356,85
1416982,342,85
1416992,330,85
1416998,362,85
1416998,336,85
1417023,368,85
1417031,364,85
1417044,336,85
1417049,369,85
1417049,335,85
1417075,340,85
1417082,362,85
1417095,326,85
1417105,358,85
1417115,340,85
1417125,318,85
1417131,356,85
1417146,470,79
1417156,659,79
1417164,659,79
1417177,337,79
1417187,266,79
1417197,314,79
1417198,318,79
1417215,337,79
1417228,303,79
1417238,345,79
1417248,336,79
1417248,322,79
1417264,359,79
1417280,319,79
1417282,343,79
1417298,352,79
1417298,323,79
1417315,362,79
1417324,330,79
1417331,324,79
1417348,340,79
1417348,301,79
1417365,340,79
1417382,340,79
1417392,341,79
1417399,393,79
1417399,376,79
1417423,415,79
1417432,432,79
1417432,409,79
1417448,441,83
1417464,389,83
1417474,357,83
1417481,348,83
1417495,284,83
1417505,296,83
1417514,280,83
1417525,262,83
1417531,300,83
1417546,266,83
1417557,293,83
1417565,304,83
1417577,274,83
1417582,310,83
1417598,282,83
1417608,281,83
1417614,312,83
1417628,280,83
1417638,309,83
1417648,301,83
1417659,284,83
1417669,318,83
1417680,281,83
1417690,296,83
1417698,304,83
1417711,274,83
1417715,313,83
1417732,290,83
1417732,293,83
1417747,319,83
1417761,284,83
1417772,316,83
1417782,304,83
1417793,293,83
1417798,329,83
1417813,296,83
1417823,314,83
1417831,321,83
1417844,293,83
1417854,330,83
1417864,309,83
1417867,308,83
1417881,337,83
1417895,300,83
1417898,328,83
1417915,320,83
1417923,302,83
1417931,338,83
1417946,305,83
1417948,320,83
1417965,332,83
1417974,316,83
1417981,357,83
1417998,325,83
1418000,325,83
1418014,344,83
1418028,300,83
1418039,328,83
1418048,320,83
1418059,301,83
1418070,339,83
1418080,303,83
1418091,318,83
1418101,317,83
1418101,368,83
1418116,655,89
1418131,659,89
1418141,456,89
1418148,220,89
1418162,262,89
1418172,311,89
1418182,300,89
1418193,289,89
1418203,330,89
1418214,297,89
1418224,315,89
1418231,329,89
1418245,302,89
1418255,348,89
1418264,330,89
1418274,333,89
1418281,362,89
1418295,325,89
1418299,355,89
1418315,346,89
1418326,322,89
1418333,358,89
1418347,328,89
1418357,347,89
1418365,371,89
1418377,356,89
1418388,408,89
1418397,396,89
1418409,399,89
1418417,424,103
1418429,368,103
1418431,368,103
1418449,336,103
1418460,294,103
1418470,316,103
1418481,272,103
1418490,282,103
1418498,297,103
1418510,268,103
1418521,306,103
1418531,286,103
1418543,284,103
1418548,314,103
1418563,278,103
1418573,312,103
1418581,311,103
1418593,292,103
1418604,332,103
1418613,298,103
1418624,311,103
1418631,325,103
1418644,291,103
1418655,331,103
1418664,308,103
1418676,305,103
1418681,334,103
1418696,295,103
1418707,326,103
1418715,324,103
1418726,304,103
1418737,344,103
1418747,313,103
1418758,327,103
1418765,342,103
1418769,308,103
1418788,345,103
1418798,325,103
1418798,320,103
1418815,349,103
1418830,310,103
1418840,340,103
1418848,338,103
1418861,317,103
1418870,356,103
1418880,325,103
1418891,336,103
1418898,351,103
1418912,316,103
1418921,355,103
1418931,335,103
1418943,327,103
1418948,359,103
1418963,318,103
1418974,348,103
1418982,348,103
1418994,323,103
1418998,362,103
1419014,332,103
1419024,344,103
1419031,362,103
1419045,328,103
1419048,367,103
1419064,346,103
1419076,338,103
1419082,370,103
1419096,330,103
1419106,357,103
1419115,356,103
1419127,328,103
1419132,365,103
1419147,345,103
1419158,359,103
1419164,365,103
1419178,328,103
1419182,360,103
1419198,338,103
1419210,328,103
1419215,360,103
1419230,323,103
1419241,350,103
1419250,351,103
1419261,319,103
1419264,362,103
1419281,472,94
1419292,658,94
1419298,659,94
1419298,352,94
1419322,264,94
1419332,321,94
1419332,307,94
1419349,333,94
1419349,300,94
1419374,331,94
1419381,336,94
1419394,310,94
1419399,348,94
1419414,318,94
1419425,331,94
1419432,356,94
1419445,325,94
1419455,361,94
1419466,345,94
1419475,333,94
1419482,361,94
1419496,325,94
1419498,352,94
1419515,359,94
1419524,345,94
1419538,398,94
1419549,380,94
1419558,400,94
1419565,431,94
1419579,401,94
1419582,433,104
1419597,398,104
1419610,360,104
1419620,367,104
1419630,308,104
1419641,317,104
1419648,311,104
1419661,278,104
1419670,317,104
1419681,288,104
1419691,296,104
1419698,318,104
1419698,282,104
1419715,316,104
1419731,301,104
1419744,290,104
1419748,324,104
1419764,285,104
1419774,310,104
1419782,314,104
1419794,288,104
1419805,329,104
1419815,301,104
1419821,308,104
1419831,330,104
1419845,289,104
1419856,320,104
1419866,305,104
1419872,293,104
1419882,330,104
1419897,295,104
1419907,321,104
1419915,326,104
1419924,301,104
1419932,342,104
1419948,313,104
1419959,320,104
1419965,340,104
1419979,303,104
1419989,336,104
1419999,323,104
1419999,311,104
1420015,346,104
1420030,309,104
1420041,334,104
1420048,339,104
1420048,311,104
1420072,350,104
1420081,319,104
1420092,321,104
1420099,344,104
1420112,306,104
1420123,340,104
1420132,326,104
1420143,315,104
1420153,349,104
1420164,314,104
1420175,338,104
1420181,346,104
1420195,318,104
1420206,356,104
1420215,324,104
1420225,331,104
1420231,359,104
1420246,321,104
1420257,357,104
1420265,347,104
1420277,331,104
1420281,364,104
1420297,326,104
1420308,343,104
1420315,346,104
1420328,313,104
1420339,350,104
1420349,325,104
1420359,331,104
1420369,354,104
1420379,320,104
1420381,368,104
1420399,369,104
1420399,349,104
1420416,380,104
1420431,335,104
1420441,349,104
1420448,354,104
1420448,318,104
1420465,356,104
1420481,329,104
1420493,331,104
1420498,346,104
1420498,310,104
1420523,485,105
1420531,659,105
1420544,659,105
1420554,403,105
1420565,229,105
1420572,329,105
1420581,336,105
1420594,299,105
1420606,337,105
1420616,315,105
1420623,322,105
1420631,349,105
1420647,312,105
1420657,351,105
1420665,346,105
1420669,333,105
1420688,372,105
1420698,333,105
1420699,346,105
1420715,349,105
1420729,312,105
1420732,350,105
1420748,327,105
1420759,338,105
1420766,378,105
1420771,360,105
1420782,412,105
1420798,422,105
1420811,412,105
1420821,452,105
1420831,409,105
1420842,402,105
1420848,376,105
1420862,315,105
1420872,329,105
1420881,284,105
1420892,273,105
1420903,296,105
1420914,256,105
1420924,288,105
1420931,280,105
1420944,264,105
1420955,302,105
1420964,268,105
1420975,289,105
1420981,302,105
1420995,274,105
1421006,318,105
1421015,299,105
1421026,303,105
1421032,330,105
1421047,288,105
1421057,313,105
1421065,300,105
1421065,276,105
1421081,306,105
1421098,268,105
1421108,281,105
1421115,292,105
1421129,262,105
1421132,304,105
1421148,282,105
1421160,283,105
1421165,312,105
1421181,279,105
1421191,314,105
1421198,308,105
1421211,290,105
1421220,325,105
1421231,290,105
1421242,305,105
1421248,316,105
1421248,284,105
1421273,323,105
1421282,298,105
1421294,296,105
1421298,322,105
1421314,284,105
1421315,319,105
1421331,313,105
1421344,296,105
1421355,333,105
1421365,306,105
1421371,337,105
1421381,349,105
1421396,310,105
1421398,345,105
1421415,314,105
1421427,308,105
1421431,334,105
1421447,295,105
1421450,327,105
1421465,321,105
1421472,303,105
1421482,338,105
1421498,299,105
1421509,432,108
1421515,659,108
1421529,658,108
1421539,412,108
1421548,212,108
1421560,294,108
1421570,327,108
1421581,283,108
1421591,317,108
1421598,316,108
1421612,299,108
1421622,340,108
1421631,309,108
1421642,329,108
1421648,349,108
1421662,320,108
1421665,363,108
1421682,343,108
1421694,342,108
1421699,370,108
1421714,330,108
1421724,357,108
1421731,353,108
1421745,334,108
1421756,380,108
1421765,358,108
1421776,387,108
1421781,413,108
1421796,389,108
1421799,427,108
1421815,400,108
1421819,375,108
1421832,377,108
1421848,312,108
1421857,318,108
1421865,300,108
1421878,271,108
1421889,309,108
1421899,278,108
1421899,296,108
1421915,311,108
1421930,279,108
1421932,318,108
1421948,297,108
1421961,292,108
1421966,324,108
1421981,285,108
1421991,315,108
1421999,314,108
1422012,294,108
1422022,331,108
1422032,300,108
1422032,312,108
1422048,331,108
1422064,297,108
1422073,331,108
1422081,310,108
1422094,304,108
1422104,333,108
1422114,297,108
1422124,325,108
1422131,324,108
1422145,303,108
1422156,343,108
1422165,311,108
1422176,324,108
1422182,340,108
1422197,308,108
1422207,345,108
1422216,326,108
1422218,320,108
1422232,352,108
1422248,311,108
1422249,341,108
1422265,339,108
1422279,316,108
1422288,354,108
1422299,322,108
1422309,333,108
1422320,349,108
1422330,312,108
1422340,350,108
1422348,331,108
1422360,327,108
1422371,360,108
1422381,323,108
1422392,353,108
1422399,353,108
1422412,329,108
1422422,367,108
1422431,334,108
1422442,346,108
1422447,362,108
1422463,327,108
1422467,364,108
1422483,346,108
1422495,337,108
1422499,366,108
1422514,326,108
1422525,349,108
1422531,347,108
1422545,323,108
1422556,362,108
1422566,333,108
1422570,346,108
1422587,363,108
1422597,334,108
1422607,386,108
1422615,363,108
1422628,346,108
1422639,377,108
1422648,328,108
1422659,348,108
1422666,344,108
1422666,317,108
1422689,354,108
1422699,323,108
1422710,333,108
1422715,342,108
1422730,349,108
1422740,586,92
1422748,659,92
1422761,631,92
1422771,276,92
1422781,267,92
1422793,333,92
1422799,317,92
1422813,293,92
1422816,338,92
1422832,308,92
1422832,319,92
1422849,339,92
1422864,302,92
1422874,341,92
1422881,331,92
1422881,329,92
1422905,367,92
1422914,331,92
1422926,354,92
1422931,355,92
1422947,325,92
1422949,362,92
1422966,335,92
1422977,349,92
1422984,378,92
1422997,354,92
1423008,403,92
1423014,401,92
1423028,401,92
1423032,440,92
1423047,396,92
1423059,399,92
1423065,373,92
1423079,323,92
1423082,340,92
1423100,297,92
1423111,295,92
1423115,313,92
1423131,276,92
1423141,311,92
1423148,300,92
1423162,287,92
1423172,322,92
1423182,283,92
1423192,305,92
1423200,308,92
1423213,277,92
1423219,319,92
1423231,290,92
1423244,298,92
1423248,323,92
1423264,287,92
1423275,322,92
1423282,311,92
1423294,296,92
1423305,331,92
1423315,292,92
1423326,315,92
1423332,321,92
1423332,292,92
1423357,331,92
1423367,303,92
1423377,310,92
1423387,331,92
1423398,295,92
1423408,330,92
1423415,322,92
1423429,312,92
1423439,349,92
1423448,314,92
1423460,338,92
1423465,344,92
1423480,314,92
1423490,355,92
1423500,323,92
1423511,324,92
1423521,344,92
1423531,303,92
1423541,336,92
1423548,323,92
1423562,309,92
1423568,347,92
1423582,314,92
1423592,340,92
1423603,350,92
1423613,325,92
1423623,369,92
1423632,345,92
1423644,347,92
1423654,370,92
1423665,332,92
1423675,362,92
1423681,347,92
1423696,332,92
1423705,365,92
1423715,326,92
1423726,345,92
1423731,353,92
1423747,322,92
1423757,359,92
1423765,334,92
1423777,338,92
1423788,364,92
1423798,327,92
1423801,362,92
1423814,351,92
1423829,336,92
1423840,376,92
1423848,351,92
1423860,362,92
1423870,362,92
1423880,327,92
1423891,356,92
1423898,327,92
1423912,324,92
1423922,347,92
1423932,308,92
1423941,341,92
1423949,326,92
1423949,301,92
1423973,431,87
1423982,650,87
1423982,659,87
1424001,466,87
1424014,190,87
1424025,317,87
1424033,308,87
1424045,305,87
1424055,336,87
1424065,305,87
1424075,339,87
1424081,331,87
1424096,312,87
1424106,347,87
1424115,310,87
1424126,329,87
1424137,340,87
1424147,308,87
1424158,342,87
1424165,313,87
1424178,309,87
1424181,336,87
1424198,302,87
1424201,344,87
1424215,352,87
1424230,356,87
1424240,411,87
1424248,393,87
1424259,421,87
1424271,436,87
1424280,403,87
1424282,422,87
1424298,369,87
1424302,337,87
1424321,336,87
1424331,277,87
1424331,296,87
1424349,283,87
1424363,261,87
1424374,298,87
1424382,265,87
1424393,280,87
1424402,291,87
1424414,258,87
1424424,296,87
1424432,274,87
1424432,275,87
1424449,308,87
1424465,275,87
1424476,310,87
1424481,305,87
1424496,285,87
1424506,320,87
1424515,284,87
1424527,296,87
1424537,307,87
1424548,270,87
1424558,305,87
1424565,284,87
1424578,279,87
1424589,307,87
1424598,269,87
1424609,295,87
1424619,291,87
1424630,270,87
1424640,309,87
1424648,277,87
1424661,296,87
1424671,313,87
1424681,283,87
1424690,324,87
1424698,306,87
1424711,305,87
1424722,337,87
1424731,297,87
1424742,329,87
1424748,324,87
1424763,300,87
1424766,336,87
1424782,302,87
1424794,315,87
1424802,330,87
1424802,296,87
1424824,334,87
1424832,313,87
1424832,307,87
1424856,339,87
1424865,308,87
1424872,335,87
1424881,333,87
1424897,322,87
1424907,371,87
1424915,331,87
1424922,343,87
1424938,356,87
1424947,313,87
1424958,347,87
1424965,328,87
1424972,318,87
1424982,344,87
1425000,305,87
1425010,334,87
1425016,321,87
1425024,354,87
1425032,622,86
1425048,659,86
1425061,589,86
1425071,245,86
1425081,265,86
1425082,333,86
1425098,301,86
1425112,295,86
1425123,331,86
1425131,298,86
1425143,327,86
1425153,329,86
1425163,304,86
1425174,347,86
1425181,319,86
1425195,337,86
1425202,361,86
1425215,330,86
1425226,369,86
1425232,349,86
1425245,338,86
1425248,370,86
1425265,337,86
1425276,370,86
1425281,380,86
1425297,366,86
1425307,415,86
1425315,397,86
1425328,414,86
1425332,434,86
1425348,388,86
1425359,402,86
1425367,356,86
1425370,321,86
1425382,334,86
1425398,283,86
1425410,303,86
1425415,307,86
1425431,281,86
1425440,327,86
1425448,304,86
1425461,315,86
1425472,334,86
1425482,296,86
1425492,328,86
1425498,310,86
1425513,298,86
1425522,330,86
1425531,292,86
1425531,316,86
1425548,321,86
1425564,296,86
1425573,336,86
1425582,309,86
1425594,317,86
1425605,335,86
1425615,297,86
1425626,331,86
1425632,316,86
1425647,303,86
1425656,340,86
1425665,305,86
1425669,331,86
1425687,338,86
1425697,313,86
1425708,353,86
1425715,324,86
1425722,328,86
1425731,348,86
1425748,309,86
1425758,345,86
1425765,332,86
1425780,318,86
1425790,355,86
1425799,317,86
1425803,336,86
1425816,341,86
1425831,311,86
1425832,350,86
1425848,320,86
1425862,326,86
1425872,349,86
1425881,312,86
1425892,347,86
1425898,336,86
1425913,322,86
1425924,359,86
1425932,322,86
1425932,345,86
1425947,351,86
1425964,321,86
1425975,361,86
1425981,334,86
1425995,339,86
1426005,361,86
1426015,323,86
1426021,354,86
1426032,339,86
1426046,321,86
1426057,354,86
1426066,316,86
1426073,336,86
1426082,345,86
1426097,318,86
1426109,359,86
1426115,332,86
1426129,340,86
1426139,380,86
1426148,339,86
1426159,366,86
1426168,354,86
1426180,328,86
1426183,359,86
1426198,319,86
1426210,334,86
1426214,341,86
1426231,310,86
1426231,349,86
1426248,312,86
1426262,367,86
1426272,604,85
1426282,659,85
1426282,607,85
1426298,241,85
1426313,273,85
1426316,342,85
1426332,293,85
1426332,313,85
1426349,327,85
1426364,298,85
1426375,341,85
1426381,317,85
1426381,318,85
1426405,350,85
1426415,324,85
1426426,363,85
1426436,356,85
1426446,339,85
1426457,371,85
1426465,327,85
1426477,340,85
1426488,350,85
1426498,319,85
1426505,364,85
1426514,352,85
1426529,367,85
1426539,411,85
1426548,391,85
1426560,438,85
1426569,437,85
1426580,415,85
1426591,434,85
1426598,373,85
1426611,365,85
1426617,357,85
1426632,310,85
1426642,338,85
1426649,312,85
1426662,308,85
1426673,335,85
1426682,297,85
1426693,329,85
1426698,324,85
1426714,301,85
1426724,338,85
1426731,302,85
1426745,317,85
1426755,331,85
1426765,302,85
1426775,341,85
1426781,320,85
1426796,317,85
1426806,343,85
1426816,303,85
1426816,330,85
1426831,320,85
1426847,291,85
1426857,327,85
1426865,292,85
1426873,308,85
1426888,323,85
1426898,288,85
1426908,325,85
1426915,306,85
1426929,304,85
1426939,335,85
1426948,304,85
1426948,333,85
1426965,331,85
1426981,308,85
1426990,345,85
1426998,310,85
1427011,323,85
1427015,336,85
1427031,296,85
1427031,332,85
1427048,310,85
1427048,300,85
1427072,328,85
1427082,293,85
1427093,321,85
1427104,315,85
1427114,291,85
1427125,331,85
1427131,301,85
1427144,315,85
1427155,335,85
1427165,304,85
1427176,338,85
1427182,317,85
1427196,313,85
1427206,355,85
1427215,312,85
1427227,332,85
1427232,326,85
1427248,292,85
1427248,327,85
1427264,294,85
1427278,306,85
1427289,323,85
1427299,288,85
1427306,325,85
1427317,296,85
1427330,353,85
1427332,635,88
1427349,659,88
1427349,512,88
1427371,204,88
1427380,259,88
1427391,327,88
1427398,289,88
1427411,301,88
1427421,323,88
1427432,289,88
1427443,326,88
1427448,310,88
1427448,305,88
1427473,346,88
1427482,315,88
1427494,343,88
1427505,346,88
1427515,324,88
1427524,365,88
1427531,340,88
1427545,346,88
1427555,364,88
1427565,332,88
1427577,374,88
1427581,371,88
1427597,379,88
1427607,427,88
1427615,397,88
1427627,423,88
1427637,423,88
1427648,380,88
1427658,389,88
1427665,330,88
1427679,312,88
1427689,310,88
1427699,260,88
1427710,292,88
1427715,274,88
1427730,264,88
1427740,297,88
1427748,257,88
1427760,279,88
1427771,282,88
1427781,255,88
1427792,295,88
1427798,271,88
1427812,281,88
1427815,308,88
1427831,276,88
1427843,315,88
1427849,301,88
1427849,290,88
1427874,324,88
1427881,287,88
1427894,310,88
1427899,314,88
1427915,287,88
1427925,326,88
1427931,296,88
1427946,303,88
1427949,324,88
1427965,284,88
1427976,316,88
1427982,301,88
1427982,288,88
1428007,320,88
1428016,285,88
1428028,309,88
1428038,320,88
1428048,297,88
1428058,340,88
1428064,314,88
1428079,322,88
1428089,348,88
1428098,312,88
1428110,347,88
1428120,333,88
1428130,317,88
1428140,350,88
1428148,312,88
1428161,334,88
1428166,338,88
1428181,308,88
1428191,357,88
1428199,341,88
1428213,334,88
1428217,356,88
1428232,312,88
1428244,337,88
1428248,327,88
1428264,312,88
1428274,352,88
1428281,316,88
1428295,336,88
1428305,345,88
1428314,308,88
1428325,442,88
1428331,655,88
1428337,659,88
1428356,503,88
1428364,202,88
1428377,318,88
1428387,321,88
1428398,296,88
1428407,333,88
1428415,303,88
1428425,326,88
1428434,337,88
1428448,306,88
1428448,345,88
1428465,323,88
1428479,331,88
1428490,363,88
1428498,329,88
1428510,365,88
1428515,360,88
1428521,341,88
1428542,372,88
1428548,336,88
1428562,357,88
1428566,372,88
1428581,351,88
1428581,402,88
1428599,392,88
1428613,401,88
1428623,439,88
1428632,400,88
1428644,418,101
1428654,384,101
1428664,339,101
1428669,352,101
1428681,302,101
1428696,310,101
1428705,317,101
1428714,285,101
1428725,326,101
1428732,303,101
1428732,303,101
1428749,334,101
1428765,295,101
1428778,327,101
1428782,322,101
1428798,301,101
1428808,339,101
1428815,304,101
1428828,320,101
1428832,331,101
1428847,297,101
1428859,334,101
1428865,313,101
1428879,311,101
1428890,341,101
1428899,301,101
1428907,331,101
1428916,325,101
1428931,305,101
1428940,344,101
1428948,311,101
1428948,326,101
1428972,341,101
1428981,308,101
1428993,344,101
1428998,323,101
1429013,318,101
1429021,348,101
1429032,309,101
1429044,339,101
1429048,337,101
1429064,315,101
1429075,353,101
1429081,322,101
1429095,334,101
1429105,346,101
1429114,311,101
1429126,346,101
1429131,326,101
1429147,318,101
1429149,349,101
1429166,311,101
1429178,342,101
1429188,341,101
1429198,320,101
1429208,359,101
1429215,326,101
1429229,338,101
1429239,354,101
1429248,318,101
1429259,353,101
1429269,335,101
1429280,328,101
1429290,358,101
1429298,315,101
1429311,343,101
1429321,340,101
1429332,315,101
1429342,354,101
1429348,319,101
1429362,337,101
1429373,369,101
1429381,327,101
1429393,361,101
1429403,340,101
1429414,324,101
1429424,354,101
1429432,316,101
1429445,341,101
1429455,338,101
1429465,313,101
1429475,350,101
1429482,307,101
1429496,369,101
1429506,602,108
1429515,658,108
1429526,599,108
1429536,229,108
1429547,274,108
1429558,337,108
1429565,287,108
1429565,315,108
1429589,320,108
1429598,297,108
1429609,339,108
1429615,308,108
1429629,316,108
1429639,339,108
1429648,309,108
1429660,351,108
1429670,339,108
1429681,328,108
1429690,361,108
1429699,320,108
1429711,340,108
1429722,345,108
1429732,323,108
1429742,370,108
1429749,351,108
1429749,372,108
1429773,409,108
1429781,384,108
1429794,428,108
1429804,418,108
1429814,399,108
1429824,415,108
1429832,353,108
1429832,355,108
1429849,342,108
1429865,299,108
1429875,326,108
1429882,295,108
1429896,299,108
1429906,324,108
1429915,291,108
1429927,326,108
1429932,312,108
1429932,296,108
1429958,328,108
1429964,287,108
1429978,307,108
1429982,313,108
1429998,286,108
1430009,328,108
1430015,304,108
1430029,311,108
1430039,337,108
1430048,303,108
1430060,337,108
1430071,320,108
1430081,301,108
1430090,336,108
1430098,298,108
1430112,320,108
1430121,329,108
1430131,301,108
1430142,338,108
1430148,315,108
1430163,321,108
1430165,348,108
1430181,315,108
1430194,351,108
1430199,340,108
1430215,323,108
1430224,355,108
1430232,317,108
1430245,333,108
1430255,342,108
1430265,309,108
1430269,342,108
1430282,316,108
1430296,313,108
1430307,340,108
1430315,302,108
1430327,336,108
1430338,328,108
1430347,309,108
1430348,347,108
1430366,315,108
1430378,334,108
1430389,347,108
1430398,329,108
1430410,381,108
1430420,351,108
1430429,346,108
1430433,367,108
1430448,317,108
1430448,342,108
1430471,327,108
1430481,304,108
1430492,336,108
1430499,300,108
1430508,318,108
1430516,322,108
1430532,356,108
1430532,648,109
1430549,659,109
1430563,514,109
1430573,212,109
1430581,251,109
1430593,308,109
1430605,294,109
1430615,275,109
1430625,316,109
1430632,284,109
1430645,301,109
1430648,312,109
1430664,282,109
1430677,328,109
1430687,312,109
1430697,313,109
1430707,343,109
1430716,309,109
