Timestamp,ECGValue,BPM
2128473,309,111
2128483,326,111
2128492,291,111
2128505,343,111
2128515,320,111
2128525,323,111
2128535,358,111
2128543,318,111
2128556,362,111
2128565,367,111
2128576,350,111
2128586,405,111
2128592,374,111
2128607,404,111
2128617,430,111
2128626,394,111
2128626,439,111
2128646,402,110
2128658,372,110
2128669,373,110
2128676,294,110
2128689,306,110
2128692,286,110
2128709,250,110
2128720,293,110
2128726,252,110
2128740,272,110
2128750,292,110
2128758,251,110
2128771,299,110
2128781,274,110
2128791,266,110
2128802,302,110
2128809,255,110
2128809,288,110
2128827,283,110
2128843,253,110
2128846,301,110
2128859,260,110
2128869,276,110
2128884,297,110
2128892,254,110
2128892,302,110
2128909,279,110
2128918,271,110
2128936,310,110
2128942,261,110
2128956,293,110
2128966,291,110
2128975,260,110
2128987,309,110
2128992,272,110
2129007,289,110
2129018,313,110
2129025,270,110
2129037,316,110
2129048,295,110
2129059,286,110
2129069,323,110
2129076,277,110
2129089,308,110
2129093,308,110
2129109,279,110
2129120,328,110
2129125,293,110
2129141,306,110
2129152,329,110
2129159,286,110
2129171,330,110
2129175,309,110
2129192,297,110
2129202,339,110
2129208,295,110
2129222,325,110
2129226,328,110
2129242,293,110
2129254,341,110
2129259,304,110
2129274,313,110
2129276,339,110
2129292,295,110
2129305,340,110
2129310,323,110
2129326,310,110
2129326,348,110
2129342,304,110
2129356,333,110
2129367,337,110
2129376,305,110
2129388,352,110
2129398,316,110
2129408,331,110
2129418,360,110
2129426,325,110
2129426,353,110
2129449,340,110
2129459,316,110
2129469,351,110
2129476,313,110
2129476,334,110
2129500,345,110
2129509,314,110
2129520,354,110
2129526,322,110
2129541,324,110
2129551,500,108
2129560,658,108
2129565,658,108
2129576,336,108
2129593,235,108
2129603,350,108
2129609,299,108
2129622,308,108
2129633,321,108
2129642,286,108
2129654,323,108
2129664,298,108
2129674,297,108
2129685,330,108
2129692,295,108
2129705,332,108
2129715,330,108
2129726,312,108
2129736,353,108
2129742,318,108
2129756,333,108
2129767,345,108
2129776,311,108
2129788,354,108
2129797,339,108
2129808,348,108
2129819,393,108
2129825,369,108
2129839,408,108
2129847,406,108
2129859,382,108
2129870,410,107
2129876,356,107
2129890,339,107
2129901,325,107
2129910,266,107
2129920,293,107
2129926,268,107
2129942,263,107
2129952,295,107
2129959,259,107
2129973,289,107
2129983,284,107
2129993,257,107
2130003,295,107
2130009,258,107
2130024,273,107
2130034,289,107
2130042,252,107
2130055,294,107
2130065,277,107
2130076,269,107
2130085,303,107
2130092,268,107
2130105,296,107
2130116,296,107
2130126,270,107
2130136,314,107
2130142,280,107
2130158,294,107
2130167,312,107
2130176,274,107
2130176,313,107
2130194,292,107
2130208,283,107
2130218,317,107
2130226,280,107
2130238,307,107
2130247,312,107
2130260,289,107
2130270,331,107
2130280,301,107
2130290,315,107
2130301,335,107
2130310,299,107
2130321,340,107
2130329,326,107
2130342,315,107
2130352,350,107
2130360,312,107
2130373,339,107
2130375,339,107
2130393,314,107
2130393,356,107
2130410,322,107
2130424,330,107
2130426,355,107
2130443,316,107
2130455,356,107
2130460,340,107
2130468,328,107
2130476,364,107
2130493,329,107
2130493,355,107
2130517,360,107
2130526,332,107
2130537,375,107
2130547,351,107
2130557,361,107
2130568,379,107
2130575,339,107
2130588,371,107
2130599,351,107
2130609,336,107
2130619,373,107
2130626,336,107
2130626,360,107
2130650,365,107
2130659,330,107
2130671,363,107
2130681,433,110
2130691,658,110
2130693,659,110
2130709,480,110
2130722,247,110
2130725,329,110
2130742,328,110
2130752,357,110
2130759,319,110
2130772,343,110
2130783,358,110
2130792,327,110
2130804,370,110
2130813,347,110
2130813,350,110
2130834,375,110
2130843,342,110
2130848,383,110
2130859,380,110
2130875,370,110
2130886,412,110
2130892,381,110
2130906,406,110
2130916,420,110
2130926,396,110
2130937,447,110
2130948,432,110
2130958,449,110
2130968,487,110
2130976,458,110
2130988,497,110
2130998,484,110
2131009,449,110
2131019,455,110
2131026,380,110
2131040,372,110
2131050,364,110
2131059,319,110
2131059,352,110
2131076,327,110
2131091,325,110
2131093,352,110
2131109,313,110
2131123,344,110
2131132,334,110
2131143,313,110
2131148,355,110
2131159,322,110
2131173,341,110
2131184,358,110
2131192,329,110
2131204,375,110
2131215,355,110
2131225,353,110
2131236,382,110
2131242,345,110
2131256,377,110
2131265,374,110
2131276,349,110
2131286,381,110
2131293,339,110
2131293,347,110
2131317,348,110
2131327,306,110
2131327,340,110
2131348,315,110
2131358,309,110
2131368,341,110
2131376,304,110
2131389,337,110
2131400,334,110
2131409,310,110
2131419,348,110
2131425,309,110
2131440,317,110
2131451,327,110
2131459,289,110
2131471,324,110
2131481,305,110
2131492,301,110
2131502,337,110
2131509,299,110
2131522,328,110
2131533,325,110
2131543,298,110
2131553,335,110
2131559,295,110
2131573,303,110
2131578,318,110
2131592,282,110
2131604,325,110
2131613,305,110
2131613,299,110
2131626,345,110
2131643,316,110
2131648,346,110
2131666,337,110
2131675,305,110
2131687,334,110
2131692,296,110
2131708,305,110
2131717,326,110
2131725,288,110
2131738,327,110
2131748,308,110
2131759,291,110
2131770,337,110
2131776,464,111
2131790,658,111
2131799,656,111
2131809,239,111
2131820,263,111
2131826,295,111
2131841,295,111
2131852,307,111
2131859,268,111
2131871,306,111
2131876,288,111
2131892,277,111
2131892,313,111
2131913,276,111
2131923,307,111
2131933,314,111
2131943,294,111
2131953,342,111
2131963,317,111
2131974,329,111
2131984,350,111
2131993,314,111
2131993,353,111
2132010,344,111
2132026,342,111
2132035,392,111
2132043,365,111
2132048,403,111
2132059,416,111
2132075,391,111
2132088,428,111
2132093,383,111
2132093,361,111
2132110,349,111
2132126,281,111
2132126,298,111
2132148,273,111
2132158,257,111
2132168,295,111
2132174,261,111
2132190,286,111
2132200,291,111
2132205,255,111
2132220,295,111
2132222,264,111
2132238,268,111
2132251,293,111
2132255,257,111
2132270,296,111
2132282,284,111
2132292,269,111
2132302,305,111
2132312,264,111
2132321,284,111
2132333,292,111
2132344,263,111
2132354,308,111
2132364,284,111
2132371,291,111
2132385,320,111
2132387,281,111
2132404,316,111
2132404,302,111
2132421,281,111
2132430,314,111
2132446,275,111
2132454,295,111
2132463,304,111
2132470,273,111
2132488,317,111
2132490,293,111
2132504,296,111
2132518,325,111
2132529,286,111
2132538,319,111
2132549,311,111
2132559,293,111
2132570,332,111
2132580,293,111
2132587,314,111
2132600,326,111
2132611,294,111
2132620,335,111
2132632,309,111
2132637,307,111
2132652,335,111
2132662,294,111
2132671,330,111
2132671,326,111
2132688,309,111
2132703,352,111
2132713,318,111
2132723,335,111
2132733,346,111
2132738,309,111
2132755,347,111
2132765,318,111
2132774,314,111
2132785,344,111
2132788,307,111
2132804,344,111
2132816,341,111
2132824,322,111
2132836,362,111
2132847,325,111
2132854,342,111
2132867,353,111
2132871,315,111
2132887,357,111
2132898,331,111
2132904,326,111
2132918,358,111
2132929,319,111
2132938,351,111
2132950,343,111
2132954,330,111
2132970,376,111
2132972,340,111
2132989,349,111
2132989,364,111
2133004,321,111
2133021,358,111
2133021,333,111
2133037,328,111
2133050,360,111
2133055,320,111
2133071,350,111
2133083,339,111
2133088,331,111
2133104,538,104
2133114,659,104
2133121,658,104
2133121,340,104
2133138,254,104
2133154,363,104
2133165,328,104
2133171,313,104
2133186,346,104
2133196,305,104
2133204,333,104
2133216,331,104
2133227,305,104
2133237,347,104
2133247,317,104
2133254,330,104
2133268,354,104
2133277,320,104
2133288,362,104
2133288,346,104
2133305,338,104
2133314,375,104
2133321,338,104
2133338,371,104
2133349,380,104
2133360,366,104
2133370,423,104
2133380,400,104
2133388,421,104
2133388,445,104
2133411,406,104
2133421,439,104
2133421,402,104
2133442,363,104
2133454,369,104
2133463,305,104
2133471,317,104
2133483,309,104
2133493,276,104
2133504,315,104
2133505,280,104
2133521,287,104
2133534,307,104
2133539,268,104
2133554,308,104
2133565,290,104
2133570,278,104
2133577,317,104
2133596,278,104
2133604,304,104
2133617,308,104
2133628,277,104
2133637,315,104
2133647,279,104
2133654,280,104
2133668,302,104
2133676,260,104
2133687,300,104
2133699,285,104
2133704,272,104
2133719,311,104
2133721,271,104
2133740,298,104
2133750,304,104
2133754,276,104
2133771,320,104
2133782,289,104
2133788,293,104
2133802,312,104
2133804,272,104
2133821,309,104
2133832,297,104
2133838,282,104
2133853,320,104
2133854,278,104
2133871,297,104
2133884,303,104
2133894,269,104
2133904,311,104
2133915,280,104
2133920,285,104
2133935,310,104
2133945,267,104
2133954,306,104
2133966,295,104
2133976,280,104
2133986,320,104
2133996,284,104
2134004,306,104
2134017,316,104
2134027,282,104
2134037,325,104
2134047,295,104
2134054,297,104
2134069,324,104
2134078,281,104
2134087,314,104
2134099,303,104
2134109,281,104
2134119,320,104
2134130,280,104
2134137,298,104
2134151,309,104
2134155,277,104
2134170,320,104
2134181,301,104
2134188,301,104
2134202,328,104
2134212,294,104
2134221,338,104
2134233,328,104
2134238,307,104
2134253,344,104
2134263,300,104
2134271,318,104
2134284,329,104
2134288,294,104
2134304,337,104
2134315,313,104
2134321,308,104
2134335,327,104
2134345,305,104
2134355,516,99
2134365,659,99
2134377,650,99
2134387,266,99
2134397,238,99
2134404,321,99
2134417,326,99
2134427,286,99
2134437,331,99
2134448,306,99
2134454,308,99
2134469,343,99
2134471,312,99
2134487,350,99
2134500,350,99
2134505,336,99
2134520,382,99
2134530,353,99
2134538,377,99
2134551,397,99
2134555,365,99
2134571,408,99
2134582,390,99
2134588,391,99
2134588,433,99
2134612,403,99
2134621,450,99
2134621,463,99
2134638,453,99
2134654,503,99
2134664,469,99
2134674,477,99
2134685,473,99
2134695,405,99
2134705,413,99
2134705,366,99
2134724,343,99
2134736,368,99
2134746,324,99
2134754,353,99
2134766,351,99
2134771,324,99
2134786,361,99
2134788,327,99
2134804,339,99
2134818,358,99
2134824,326,99
2134837,369,99
2134849,352,99
2134855,344,99
2134868,374,99
2134879,332,99
2134888,354,99
2134900,353,99
2134905,328,99
2134920,372,99
2134931,345,99
2134938,360,99
2134951,387,99
2134962,353,99
2134970,386,99
2134982,360,99
2134988,343,99
2135003,368,99
2135013,324,99
2135021,348,99
2135034,347,99
2135043,320,99
2135055,365,99
2135055,338,99
2135071,351,99
2135084,373,99
2135088,335,99
2135104,372,99
2135116,350,99
2135121,332,99
2135135,364,99
2135146,322,99
2135154,347,99
2135166,347,99
2135177,318,99
2135187,360,99
2135197,324,99
2135204,327,99
2135218,352,99
2135228,320,99
2135237,356,99
2135250,335,99
2135259,319,99
2135270,345,99
2135279,302,99
2135287,323,99
2135300,328,99
2135310,294,99
2135320,335,99
2135332,303,99
2135338,300,99
2135352,338,99
2135362,477,103
2135371,659,103
2135382,655,103
2135388,232,103
2135402,277,103
2135413,301,103
2135421,317,103
2135433,319,103
2135444,288,103
2135454,331,103
2135465,298,103
2135471,301,103
2135485,325,103
2135495,287,103
2135504,327,103
2135515,318,103
2135522,311,103
2135522,355,103
2135547,320,103
2135554,349,103
2135568,360,103
2135572,329,103
2135587,371,103
2135587,350,103
2135605,363,103
2135618,399,103
2135629,373,103
2135637,420,103
2135650,419,103
2135654,408,103
2135670,445,103
2135680,395,103
2135687,387,103
2135701,359,103
2135705,292,103
2135721,310,103
2135731,269,103
2135738,263,103
2135751,292,103
2135761,256,103
2135770,293,103
2135783,285,103
2135793,266,103
2135803,307,103
2135813,267,103
2135820,284,103
2135834,294,103
2135844,261,103
2135854,302,103
2135865,275,103
2135872,275,103
2135886,306,103
2135896,263,103
2135904,297,103
2135916,291,103
2135926,271,103
2135937,313,103
2135947,276,103
2135954,296,103
2135967,311,103
2135974,275,103
2135987,315,103
2135998,288,103
2136004,280,103
2136019,304,103
2136024,263,103
2136037,294,103
2136049,293,103
2136060,275,103
2136070,320,103
2136081,289,103
2136087,306,103
2136101,322,103
2136111,282,103
2136120,320,103
2136132,295,103
2136138,290,103
2136151,321,103
2136163,282,103
2136171,318,103
2136183,315,103
2136193,292,103
2136204,335,103
2136214,301,103
2136221,315,103
2136235,333,103
2136245,298,103
2136254,338,103
2136265,314,103
2136271,310,103
2136286,340,103
2136296,301,103
2136304,333,103
2136304,332,103
2136324,311,103
2136337,357,103
2136347,321,103
2136355,336,103
2136367,353,103
2136370,313,103
2136388,350,103
2136398,325,103
2136404,317,103
2136419,348,103
2136429,305,103
2136438,338,103
2136438,346,103
2136454,323,103
2136470,362,103
2136481,327,103
2136487,332,103
2136501,344,103
2136504,305,103
2136522,345,103
2136532,323,103
2136538,311,103
2136553,345,103
2136555,298,103
2136571,314,103
2136581,409,101
2136589,628,101
2136589,659,101
2136614,436,101
2136621,229,101
2136621,351,101
2136637,323,101
2136655,348,101
2136666,325,101
2136671,309,101
2136687,337,101
2136687,292,101
2136704,323,101
2136716,330,101
2136726,306,101
2136737,353,101
2136748,328,101
2136755,344,101
2136765,373,101
2136772,339,101
2136787,381,101
2136799,366,101
2136805,356,101
2136813,394,101
2136830,359,101
2136838,396,101
2136838,413,101
2136861,397,101
2136871,451,101
2136882,425,101
2136888,434,101
2136888,454,101
2136912,402,101
2136920,413,101
2136932,367,101
2136938,325,101
2136938,341,101
2136964,287,101
2136972,305,101
2136972,311,101
2136994,280,101
2137004,321,101
2137014,289,101
2137021,293,101
2137035,320,101
2137046,281,101
2137055,320,101
2137066,306,101
2137075,290,101
2137087,324,101
2137097,280,101
2137104,302,101
2137118,303,101
2137123,271,101
2137137,312,101
2137148,283,101
2137155,287,101
2137168,317,101
2137179,279,101
2137188,317,101
2137200,304,101
2137210,284,101
2137220,318,101
2137230,275,101
2137237,295,101
2137251,303,101
2137255,271,101
2137271,317,101
2137282,290,101
2137288,295,101
2137288,323,101
2137312,282,101
2137321,318,101
2137333,306,101
2137338,289,101
2137353,327,101
2137364,287,101
2137371,307,101
2137384,315,101
2137395,283,101
2137404,327,101
2137416,299,101
2137423,300,101
2137436,327,101
2137445,282,101
2137456,316,101
2137466,305,101
2137476,285,101
2137487,324,101
2137488,284,101
2137504,305,101
2137518,316,101
2137521,281,101
2137538,323,101
2137548,294,101
2137556,293,101
2137563,320,101
2137579,278,101
2137588,316,101
2137588,307,101
2137604,288,101
2137620,327,101
2137631,288,101
2137637,307,101
2137651,317,101
2137662,282,101
2137670,321,101
2137681,293,101
2137692,301,101
2137702,339,101
2137713,297,101
2137721,330,101
2137734,319,101
2137738,288,101
2137753,328,101
2137764,288,101
2137772,302,101
2137785,316,101
2137788,279,101
2137804,319,101
2137815,284,101
2137821,331,101
2137836,590,99
2137846,658,99
2137856,549,99
2137867,199,99
2137876,252,99
2137888,328,99
2137897,281,99
2137904,289,99
2137918,306,99
2137928,268,99
2137938,309,99
2137949,287,99
2137956,283,99
2137956,319,99
2137980,282,99
2137987,316,99
2138000,315,99
2138010,294,99
2138020,344,99
2138031,315,99
2138038,337,99
2138051,366,99
2138061,340,99
2138070,395,99
2138083,391,99
2138087,399,99
2138103,454,99
2138110,428,99
2138121,475,99
2138131,486,99
2138144,461,99
2138154,491,99
2138162,435,99
2138170,415,99
2138185,402,99
2138188,341,99
2138204,364,99
2138215,342,99
2138221,341,99
2138236,387,99
2138246,366,99
2138256,406,99
2138267,412,99
2138277,394,99
2138287,440,99
2138298,400,99
2138304,387,99
2138319,372,99
2138328,303,99
2138337,313,99
2138349,287,99
2138356,275,99
2138370,323,99
2138380,300,99
2138387,347,99
2138401,370,99
2138411,350,99
2138421,389,99
2138421,345,99
2138437,335,99
2138451,340,99
2138462,290,99
2138471,316,99
2138482,298,99
2138487,302,99
2138503,355,99
2138513,322,99
2138520,356,99
2138525,367,99
2138538,340,99
2138554,380,99
2138563,343,99
2138571,340,99
2138571,354,99
2138588,312,99
2138605,347,99
2138616,337,99
2138621,330,99
2138637,373,99
2138647,338,99
2138657,360,99
2138668,357,99
2138671,310,99
2138688,332,99
2138698,286,99
2138704,280,99
2138719,301,99
2138724,267,99
2138737,309,99
2138737,304,99
2138760,304,99
2138770,363,99
2138781,340,99
2138788,364,99
2138801,371,99
2138804,326,99
2138820,345,99
2138825,302,99
2138838,293,99
2138852,314,99
2138862,277,99
2138870,320,99
2138882,317,99
2138893,306,99
2138904,451,103
2138913,657,103
2138924,659,103
2138935,458,103
2138945,170,103
2138954,300,103
2138965,277,103
2138971,274,103
2138985,312,103
2138996,285,103
2139004,337,103
2139016,337,103
2139026,324,103
2139037,368,103
2139048,322,103
2139056,338,103
2139068,348,103
2139078,316,103
2139088,365,103
2139098,344,103
2139104,354,103
2139119,397,103
2139129,354,103
2139138,403,103
2139150,400,103
2139157,385,103
2139170,441,103
2139181,405,103
2139188,432,103
2139188,449,103
2139205,412,103
2139221,460,103
2139232,411,103
2139237,382,103
2139252,386,103
2139263,316,103
2139271,341,103
2139284,322,103
2139294,291,103
2139304,331,103
2139314,278,103
2139323,289,103
2139335,293,103
2139346,244,103
2139355,294,103
2139357,265,103
2139371,269,103
2139381,312,103
2139396,268,103
2139404,310,103
2139416,294,103
2139427,263,103
2139438,300,103
2139447,254,103
2139457,275,103
2139468,296,103
2139478,267,103
2139487,321,103
2139499,301,103
2139505,303,103
2139519,333,103
2139529,282,103
2139537,315,103
2139550,305,103
2139560,272,103
2139570,310,103
2139582,268,103
2139588,286,103
2139588,303,103
2139612,264,103
2139621,315,103
2139621,297,103
2139637,303,103
2139653,349,103
2139663,312,103
2139671,350,103
2139684,347,103
2139694,321,103
2139704,361,103
2139715,314,103
2139722,328,103
2139722,337,103
2139746,293,103
2139755,337,103
2139764,310,103
2139771,306,103
2139787,343,103
2139788,303,103
2139804,339,103
2139818,333,103
2139827,303,103
2139838,345,103
2139848,305,103
2139857,321,103
2139869,348,103
2139875,332,103
2139889,390,103
2139889,370,103
2139909,367,103
2139920,397,103
2139930,338,103
2139937,361,103
2139950,351,103
2139961,322,103
2139970,367,103
2139981,331,103
2139987,348,103
2140002,356,103
2140005,403,106
2140021,657,106
2140033,659,106
2140037,499,106
2140053,239,106
2140063,276,106
2140071,322,106
2140084,313,106
2140088,290,106
2140105,340,106
2140114,307,106
2140120,318,106
2140136,336,106
2140146,291,106
2140155,328,106
2140166,303,106
2140171,289,106
2140187,326,106
2140187,281,106
2140206,313,106
2140218,319,106
2140221,294,106
2140237,341,106
2140237,309,106
2140258,322,106
2140269,352,106
2140271,321,106
2140287,374,106
2140299,367,106
2140309,366,106
2140320,406,106
2140331,358,106
2140337,369,106
2140352,340,106
2140360,272,106
2140371,290,106
2140381,236,106
2140388,237,106
2140388,261,106
2140413,223,106
2140422,269,106
2140422,249,106
2140437,233,106
2140453,265,106
2140463,214,106
2140472,234,106
2140472,235,106
2140488,202,106
2140504,250,106
2140514,221,106
2140521,233,106
2140535,264,106
2140546,230,106
2140555,278,106
2140567,266,106
2140576,253,106
2140587,295,106
2140598,257,106
2140605,289,106
2140618,298,106
2140625,269,106
2140638,314,106
2140649,282,106
2140658,286,106
2140669,308,106
2140679,259,106
2140687,295,106
2140701,276,106
2140704,260,106
2140720,296,106
2140730,252,106
2140739,275,106
2140751,286,106
2140762,257,106
2140771,306,106
2140782,280,106
2140788,290,106
2140803,325,106
2140813,287,106
2140820,335,106
2140824,328,106
2140838,312,106
2140854,357,106
2140864,320,106
2140870,348,106
2140885,359,106
2140895,323,106
2140904,373,106
2140916,345,106
2140924,348,106
2140937,375,106
2140946,327,106
2140954,356,106
2140967,345,106
2140977,323,106
2140988,366,106
2140998,326,106
2141004,346,106
2141018,361,106
2141028,322,106
2141037,391,106
2141049,558,105
2141059,659,105
2141070,658,105
2141072,291,105
2141088,300,105
2141101,355,105
2141104,329,105
2141120,367,105
2141122,333,105
2141137,355,105
2141152,370,105
2141163,339,105
2141171,385,105
2141182,359,105
2141188,360,105
2141203,394,105
2141214,355,105
2141221,392,105
2141234,388,105
2141243,371,105
2141254,417,105
2141264,381,105
2141271,405,105
2141285,426,105
2141295,400,105
2141304,457,105
2141316,448,105
2141321,462,105
2141321,508,105
2141347,473,105
2141354,510,105
2141367,490,105
2141378,440,105
2141388,448,105
2141398,376,105
2141404,371,105
2141419,368,105
2141428,318,105
2141437,360,105
2141450,334,105
2141460,329,105
2141471,360,105
2141472,314,105
2141488,344,105
2141500,336,105
2141505,311,105
2141521,355,105
2141532,318,105
2141538,334,105
2141538,354,105
2141560,319,105
2141570,366,105
2141574,343,105
2141587,337,105
2141604,371,105
2141614,326,105
2141620,361,105
2141634,355,105
2141645,329,105
2141655,372,105
2141660,331,105
2141671,340,105
2141686,352,105
2141691,306,105
2141704,343,105
2141715,315,105
2141727,308,105
2141737,340,105
2141747,291,105
2141754,324,105
2141767,323,105
2141777,298,105
2141787,356,105
2141799,320,105
2141805,336,105
2141805,362,105
2141830,315,105
2141838,356,105
2141838,330,105
2141859,324,105
2141871,358,105
2141881,303,105
2141887,337,105
2141901,329,105
2141904,283,105
2141921,376,105
2141931,554,112
2141938,659,112
2141952,635,112
2141963,193,112
2141971,304,112
2141983,319,112
2141993,295,112
2142004,334,112
2142005,278,112
2142021,315,112
2142031,315,112
2142045,285,112
2142054,343,112
2142063,310,112
2142076,334,112
2142085,366,112
2142088,326,112
2142106,381,112
2142117,360,112
2142127,350,112
2142138,390,112
2142147,336,112
2142154,376,112
2142167,385,112
2142178,361,112
2142187,430,112
2142199,402,112
2142204,432,112
2142220,470,112
2142229,420,112
2142238,462,112
2142250,413,112
2142260,360,112
2142270,369,112
2142271,287,112
2142287,303,112
2142301,298,112
2142312,259,112
2142321,317,112
2142333,279,112
2142337,292,112
2142353,320,112
2142363,267,112
2142370,313,112
2142384,288,112
2142394,265,112
2142404,312,112
2142404,257,112
2142422,292,112
2142434,296,112
2142437,256,112
2142454,306,112
2142461,259,112
2142476,264,112
2142486,292,112
2142497,240,112
2142504,293,112
2142517,275,112
2142527,258,112
2142538,308,112
2142547,252,112
2142555,282,112
2142568,287,112
2142578,244,112
2142588,297,112
2142599,256,112
2142610,264,112
2142620,296,112
2142630,243,112
2142638,294,112
2142651,278,112
2142661,260,112
2142671,309,112
2142675,254,112
2142687,282,112
2142702,292,112
2142705,248,112
2142722,302,112
2142722,266,112
2142737,272,112
2142753,307,112
2142764,255,112
2142771,304,112
2142783,292,112
2142787,269,112
2142804,317,112
2142814,265,112
2142825,292,112
2142835,303,112
2142838,255,112
2142854,310,112
2142866,274,112
2142874,275,112
2142886,308,112
2142897,254,112
2142904,297,112
2142917,283,112
2142924,256,112
2142938,304,112
2142938,250,112
2142955,285,112
2142969,298,112
2142978,245,112
2142988,291,112
2142999,252,112
2143010,244,112
2143020,282,112
2143030,227,112
2143038,272,112
2143050,261,112
2143061,233,112
2143071,278,112
2143082,212,112
2143089,266,112
2143102,493,114
2143112,653,114
2143121,498,114
2143121,125,114
2143143,184,114
2143153,256,114
2143164,191,114
2143171,232,114
2143171,225,114
2143188,201,114
2143204,254,114
2143215,211,114
2143221,248,114
2143235,280,114
2143238,244,114
2143254,315,114
2143266,298,114
2143277,307,114
2143287,359,114
2143297,321,114
2143304,373,114
2143318,380,114
2143329,359,114
2143338,421,114
2143349,383,114
2143354,414,114
2143369,446,114
2143374,414,114
2143388,476,114
2143388,452,114
2143410,445,114
2143421,480,114
2143431,407,114
2143437,415,114
2143451,384,114
2143462,327,114
2143471,368,114
2143482,318,114
2143488,335,114
2143502,360,114
2143504,312,114
2143521,363,114
2143533,342,114
2143544,333,114
2143553,373,114
2143564,324,114
2143572,365,114
2143585,365,114
2143595,331,114
2143605,383,114
2143605,337,114
2143621,352,114
2143636,377,114
2143638,332,114
2143655,384,114
2143665,360,114
2143677,348,114
2143687,390,114
2143688,334,114
2143704,367,114
2143714,365,114
2143721,334,114
2143737,387,114
2143749,344,114
2143755,361,114
2143763,392,114
2143780,342,114
2143788,390,114
2143800,362,114
2143805,347,114
2143821,392,114
2143821,339,114
2143838,372,114
2143851,377,114
2143862,339,114
2143871,392,114
2143871,359,114
2143893,379,114
2143903,407,120
2143913,358,120
2143920,406,120
2143934,377,120
2143943,360,120
2143954,405,120
2143965,355,120
2143971,387,120
2143985,390,120
2143996,348,120
2144005,388,120
2144005,368,120
2144026,567,120
2144036,660,120
2144047,657,120
2144054,302,120
2144068,284,120
2144078,323,120
2144087,364,120
2144098,309,120
2144104,339,120
2144104,348,120
2144129,308,120
2144138,364,120
2144149,329,120
2144159,342,120
2144170,376,120
2144176,331,120
2144187,392,120
2144201,377,120
2144207,360,120
2144221,416,119
2144221,369,119
2144237,397,119
2144252,406,119
2144262,371,119
2144270,431,119
2144283,407,119
2144288,425,119
2144304,472,119
2144305,433,119
2144321,485,119
2144334,470,119
2144338,428,119
2144354,440,119
2144363,352,119
2144371,345,119
2144385,331,119
2144388,274,119
2144404,323,119
2144416,288,119
2144426,297,119
2144437,338,119
2144447,293,119
2144454,343,119
2144468,330,119
2144474,303,119
2144488,350,119
2144499,297,119
2144504,320,119
2144518,337,119
2144528,294,119
2144537,357,119
2144549,329,119
2144560,331,119
2144570,373,119
2144575,319,119
2144588,363,119
2144588,349,119
2144605,316,119
2144621,357,119
2144621,299,119
2144642,309,119
2144652,318,119
2144662,268,119
2144671,314,119
2144683,276,119
2144688,268,119
2144704,305,119
2144714,254,119
2144722,300,119
2144734,299,119
2144745,275,119
2144756,334,119
2144765,293,119
2144776,316,119
2144786,339,119
2144797,292,119
2144804,347,119
2144816,318,119
2144822,308,119
2144838,346,119
2144847,292,119
2144855,326,119
2144868,315,119
2144872,278,119
2144887,326,119
2144899,277,119
2144904,291,119
2144919,310,119
2144921,261,119
2144937,313,119
2144950,285,119
2144960,280,119
2144971,335,119
2144980,285,119
2144987,320,119
2145001,321,119
2145005,281,119
2145021,332,119
2145033,287,119
2145043,303,119
2145052,326,119
2145062,275,119
2145070,325,119
2145084,297,119
2145089,278,119
2145104,434,117
2145114,640,117
2145122,658,117
2145135,404,117
2145145,186,117
2145154,325,117
2145167,278,117
2145171,276,117
2145186,296,117
2145196,240,117
2145204,291,117
2145204,268,117
2145227,258,117
2145238,314,117
2145238,271,117
2145256,320,117
2145269,335,117
2145278,308,117
2145287,368,117
2145299,328,117
2145304,342,117
2145320,374,117
2145329,327,117
2145337,377,117
2145350,355,117
2145361,345,117
2145371,402,117
2145381,360,117
2145388,408,117
2145402,426,117
2145405,393,117
2145421,444,117
2145433,387,117
2145438,364,117
2145438,362,117
2145463,281,117
2145471,308,117
2145484,276,117
2145495,251,117
2145504,299,117
2145514,245,117
2145521,277,117
2145521,287,117
2145537,244,117
2145555,298,117
2145567,256,117
2145571,258,117
2145587,292,117
2145588,240,117
2145604,290,117
2145617,274,117
2145628,253,117
2145637,306,117
2145638,253,117
2145654,280,117
2145665,289,117
2145679,245,117
2145688,301,117
2145700,261,117
2145705,260,117
2145721,292,117
2145730,232,117
2145738,271,117
2145750,252,117
2145761,221,117
2145770,272,117
2145782,221,117
2145788,252,117
2145788,274,117
2145804,237,117
2145821,300,117
2145833,270,117
2145843,270,117
2145853,312,117
2145864,258,117
2145871,303,117
2145876,290,117
2145895,263,117
2145904,317,117
2145915,267,117
2145921,290,117
2145921,303,117
2145937,255,117
2145955,304,117
2145966,266,117
2145977,260,117
2145987,296,117
2145998,233,117
2146004,271,117
2146004,259,117
2146028,231,117
2146038,290,117
2146038,247,117
2146054,279,117
2146069,313,117
2146071,281,117
2146087,348,117
2146100,325,117
2146110,325,117
2146121,369,117
2146131,313,117
2146137,349,117
2146152,341,117
2146162,307,117
2146171,353,117
2146181,302,117
2146187,320,117
2146202,349,117
2146205,306,117
2146221,355,117
2146234,321,117
2146244,303,117
2146253,336,117
2146264,278,117
2146273,323,117
2146285,322,117
2146295,293,117
2146305,353,117
2146305,312,117
2146321,333,117
2146336,499,113
2146346,659,113
2146354,659,113
2146366,380,113
2146377,230,113
2146387,363,113
2146397,315,113
2146404,349,113
2146418,352,113
2146428,322,113
2146437,380,113
2146449,342,113
2146454,358,113
2146470,383,113
2146475,333,113
2146488,387,113
2146500,364,113
2146510,357,113
2146520,409,113
2146531,366,113
2146538,410,113
2146538,419,113
2146562,388,113
2146571,447,113
2146571,412,113
2146587,431,113
2146603,469,113
2146608,435,113
2146620,497,113
2146634,487,113
2146644,473,113
2146654,517,113
2146665,448,113
2146671,451,113
2146684,424,113
2146695,360,113
2146704,392,113
2146716,340,113
2146723,344,113
2146736,375,113
2146747,324,113
2146754,372,113
2146767,354,113
2146772,334,113
2146787,379,113
2146798,328,113
2146804,360,113
2146819,369,113
2146829,327,113
2146838,381,113
2146849,340,113
2146860,342,113
2146870,373,113
2146880,317,113
2146887,365,113
2146900,348,113
2146911,328,113
2146921,377,113
2146931,324,113
2146938,349,113
2146952,358,113
2146954,310,113
2146971,364,113
2146982,329,113
2146993,331,113
2147003,366,113
2147013,315,113
2147023,361,113
2147034,344,113
2147044,324,113
2147055,381,113
2147065,335,113
2147071,363,113
2147071,374,113
2147096,328,113
2147105,383,113
2147114,347,113
2147126,347,113
2147136,387,113
2147146,336,113
2147154,382,113
2147165,375,113
2147178,354,113
2147187,403,114
2147199,350,114
2147204,380,114
2147219,407,114
2147229,357,114
2147237,408,114
2147250,371,114
2147254,360,114
2147270,396,114
2147280,340,114
2147287,383,114
2147300,372,114
2147311,346,114
2147321,397,114
2147332,338,114
2147338,369,114
2147352,558,114
2147362,659,114
2147371,659,114
2147382,339,114
2147394,262,114
2147404,375,114
2147414,312,114
2147421,347,114
2147434,341,114
2147444,315,114
2147454,372,114
2147465,331,114
2147471,356,114
2147486,376,114
2147488,325,114
2147505,367,114
2147516,323,114
2147521,305,114
2147537,337,114
2147538,280,114
2147554,321,114
2147569,319,114
2147572,295,114
2147589,358,114
2147589,325,114
2147605,351,114
2147615,386,114
2147622,347,114
2147638,406,111
2147651,381,111
2147655,369,111
2147671,398,111
2147681,318,111
2147687,319,111
2147701,291,111
2147705,232,111
2147721,273,111
2147732,219,111
2147738,231,111
2147738,258,111
2147755,209,111
2147771,264,111
2147784,241,111
2147788,230,111
2147804,275,111
2147815,225,111
2147821,259,111
2147835,261,111
2147845,223,111
2147854,276,111
2147866,235,111
2147871,247,111
2147886,278,111
2147896,228,111
2147904,282,111
2147917,259,111
2147926,242,111
2147938,295,111
2147948,239,111
2147954,273,111
2147968,284,111
2147976,247,111
2147989,310,111
2147999,274,111
2148005,288,111
2148020,325,111
2148030,267,111
2148037,312,111
2148050,289,111
2148060,264,111
2148071,312,111
2148081,258,111
2148088,295,111
2148102,310,111
2148112,271,111
2148121,329,111
2148123,284,111
2148137,280,111
2148153,304,111
2148155,238,111
2148171,278,111
2148171,260,111
2148187,244,111
2148205,300,111
2148214,261,111
2148220,293,111
2148235,304,111
2148246,261,111
2148254,306,111
2148265,263,111
2148276,258,111
2148286,281,111
2148297,234,111
2148304,277,111
2148318,275,111
2148324,265,111
2148338,311,111
2148349,273,111
2148354,293,111
2148368,300,111
2148376,257,111
2148387,300,111
2148400,268,111
2148404,279,111
2148420,315,111
2148430,268,111
2148437,300,111
2148451,281,111
2148461,248,111
2148470,284,111
2148482,235,111
2148488,256,111
2148488,272,111
2148504,242,111
2148521,291,111
2148533,257,111
2148538,339,111
2148554,626,110
2148564,658,110
2148571,453,110
2148584,181,110
2148588,242,110
2148604,308,110
2148616,256,110
2148621,277,110
2148621,297,110
2148646,255,110
2148655,306,110
2148662,273,110
2148677,268,110
2148687,308,110
2148697,264,110
2148704,301,110
2148717,300,110
2148727,277,110
2148737,330,110
2148738,294,110
2148755,326,110
2148769,357,110
2148780,324,110
2148788,388,110
2148799,382,110
2148810,389,110
2148820,446,110
2148826,414,110
2148837,462,110
2148851,464,110
2148861,435,110
2148872,470,110
2148873,399,110
2148888,382,110
2148902,377,110
2148904,317,110
2148921,354,110
2148932,323,110
2148938,316,110
2148954,365,110
2148964,323,110
2148971,356,110
2148985,346,110
2148995,311,110
2149004,357,110
2149015,319,110
2149026,338,110
2149036,362,110
2149038,315,110
2149055,372,110
2149067,352,110
2149072,347,110
2149088,384,110
2149097,331,110
2149104,359,110
2149117,352,110
2149126,322,110
2149138,371,110
2149138,337,110
2149154,352,110
2149169,379,110
2149180,340,110
2149188,386,110
2149200,369,110
2149211,348,110
2149221,376,110
2149231,330,110
2149238,356,110
2149252,358,110
2149254,322,110
2149270,376,110
2149282,344,110
2149293,354,110
2149303,380,110
2149312,335,110
2149321,386,110
2149334,371,110
2149344,349,110
2149353,397,110
2149364,342,110
2149371,366,110
2149371,370,110
2149395,337,110
2149404,387,110
2149416,353,110
2149421,361,110
2149437,385,110
2149447,333,110
2149455,487,108
2149455,659,108
2149477,659,108
2149487,518,108
2149498,234,108
2149504,353,108
2149519,373,108
2149528,330,108
2149537,378,108
2149549,348,108
2149560,359,108
2149570,392,108
2149580,347,108
2149587,389,108
2149601,378,108
2149610,359,108
2149621,410,108
2149621,370,108
2149638,400,108
2149652,415,108
2149663,383,108
2149671,434,108
2149671,404,108
2149688,404,108
2149688,442,108
2149714,408,108
2149722,460,108
2149722,462,108
2149745,448,108
2149754,500,108
2149764,456,108
2149771,464,108
2149777,447,108
2149787,363,108
2149804,371,108
2149817,313,108
2149821,292,108
2149836,319,108
2149846,273,108
2149854,312,108
2149867,306,108
2149878,281,108
2149888,325,108
2149898,278,108
2149904,294,108
2149919,306,108
2149929,265,108
2149937,312,108
2149950,286,108
2149955,283,108
2149970,318,108
2149980,273,108
2149987,311,108
2150001,306,108
2150004,277,108
2150020,327,108
2150032,288,108
2150038,309,108
2150052,329,108
2150063,291,108
2150072,341,108
2150076,312,108
2150088,304,108
2150103,342,108
2150105,287,108
2150121,320,108
2150134,314,108
2150145,284,108
2150154,332,108
2150166,292,108
2150171,308,108
2150185,332,108
2150196,293,108
2150204,339,108
2150204,315,108
2150224,305,108
2150237,344,108
2150238,303,108
2150255,342,108
2150268,345,108
2150278,316,108
2150287,359,108
2150298,311,108
2150304,320,108
2150319,342,108
2150326,295,108
2150337,340,108
2150337,316,108
2150360,305,108
2150370,332,108
2150381,328,108
2150388,577,113
2150401,659,113
2150404,598,113
2150421,247,113
2150432,263,113
2150438,310,113
2150452,319,113
2150455,269,113
2150471,316,113
2150476,293,113
2150487,281,113
2150504,326,113
2150512,284,113
2150520,319,113
2150535,326,113
2150538,298,113
2150554,351,113
2150565,320,113
2150571,331,113
2150586,357,113
2150596,313,113
2150604,359,113
2150617,349,113
2150627,343,113
2150637,395,113
2150647,364,113
2150655,408,113
2150655,426,113
2150679,401,113
2150688,452,113
2150699,410,113
2150704,398,113
2150720,394,113
2150729,312,113
2150738,325,113
2150750,287,113
2150755,256,113
2150770,293,113
2150781,247,113
2150787,274,113
2150802,284,113
2150812,246,113
2150821,296,113
2150832,263,113
2150837,263,113
2150853,293,113
2150854,243,113
2150871,285,113
2150883,273,113
2150888,253,113
2150904,301,113
2150915,256,113
2150924,278,113
2150935,287,113
2150937,244,113
2150955,292,113
2150955,259,113
2150976,261,113
2150986,297,113
2150988,251,113
2151004,296,113
2151018,289,113
2151021,270,113
2151037,314,113
2151048,268,113
2151054,289,113
2151069,298,113
2151076,257,113
2151088,306,113
2151099,276,113
2151104,280,113
2151119,316,113
2151122,269,113
2151137,308,113
2151137,298,113
2151161,273,113
2151171,319,113
2151181,279,113
2151188,299,113
2151202,317,113
2151205,277,113
2151221,328,113
2151233,300,113
2151237,294,113
2151254,330,113
2151263,281,113
2151271,318,113
2151284,311,113
2151295,286,113
2151304,337,113
2151305,298,113
2151321,318,113
2151335,338,113
2151346,297,113
2151354,343,113
2151366,314,113
2151377,308,113
2151387,346,113
2151397,300,113
2151404,336,113
2151404,334,113
2151421,306,113
2151438,354,113
2151438,314,113
2151454,330,113
2151468,349,113
2151479,304,113
2151488,357,113
2151499,338,113
2151510,333,113
2151520,368,113
2151525,317,113
2151538,347,113
2151551,341,113
2151555,307,113
2151571,355,113
2151582,315,113
2151587,328,113
2151603,352,113
2151613,300,113
2151623,358,113
2151623,492,113
2151643,658,113
2151654,658,113
2151665,324,113
2151671,276,113
2151671,358,113
2151694,316,113
2151704,365,113
2151715,331,113
2151721,343,113
2151736,362,113
2151745,318,113
2151753,364,113
2151767,347,113
2151777,343,113
2151787,401,113
2151788,374,113
2151804,413,113
2151815,419,113
2151828,387,113
2151838,446,113
2151849,416,113
2151855,423,113
2151869,449,113
2151880,403,113
2151888,450,113
2151899,447,113
2151910,447,113
2151920,507,113
2151931,466,113
2151938,489,113
2151951,476,113
2151955,404,113
2151971,405,113
2151982,315,113
2151987,279,113
2152002,276,113
2152012,213,113
2152021,253,113
2152021,244,113
2152044,240,113
2152055,297,113
2152064,259,113
2152072,286,113
2152085,292,113
2152088,246,113
2152104,284,113
2152115,239,113
2152126,232,113
2152126,256,113
2152146,200,113
2152154,240,113
2152167,230,113
2152177,211,113
2152188,259,113
2152198,211,113
2152205,238,113
2152205,249,113
2152228,209,113
2152238,256,113
2152238,222,113
2152255,220,113
2152270,251,113
2152271,201,113
2152288,240,113
2152288,231,113
2152304,210,113
2152320,257,113
2152331,218,113
2152338,246,113
2152351,266,113
2152361,230,113
2152372,283,113
2152377,254,113
2152393,249,113
2152403,284,113
2152405,236,113
2152421,277,113
2152434,270,113
2152439,251,113
2152455,304,113
2152464,265,113
2152472,288,113
2152485,309,113
2152488,272,113
2152504,324,113
2152516,302,113
2152526,303,113
2152536,339,113
2152547,295,113
2152554,330,113
2152567,320,113
2152578,291,113
2152587,338,113
2152597,297,113
2152604,315,113
2152619,338,113
2152621,298,113
2152637,350,113
2152650,327,113
2152660,326,113
2152671,374,113
2152680,335,113
2152687,371,113
2152701,365,113
2152712,334,113
2152721,372,113
2152732,330,113
2152738,340,113
2152752,363,113
2152754,322,113
2152772,368,113
2152781,345,113
2152788,326,113
2152804,385,113
2152805,527,106
2152820,659,106
2152834,658,106
2152845,286,106
2152854,306,106
2152865,332,106
2152872,333,106
2152877,352,106
2152896,309,106
2152904,353,106
2152917,338,106
2152921,324,106
2152937,368,106
2152948,325,106
2152954,359,106
2152967,365,106
2152978,336,106
2152988,386,106
2152998,348,106
2153004,360,106
2153019,393,106
2153029,354,106
2153037,407,106
2153049,397,106
2153060,393,106
2153070,444,106
2153081,413,106
2153088,452,106
2153101,463,106
2153111,434,109
2153121,481,109
2153132,436,109
2153137,422,109
2153153,421,109
2153155,345,109
2153172,367,109
2153183,336,109
2153193,307,109
2153203,346,109
2153214,298,109
2153221,321,109
2153235,329,109
2153245,293,109
2153255,344,109
2153255,307,109
2153273,314,109
2153285,347,109
2153296,302,109
2153305,342,109
2153317,330,109
2153322,306,109
2153337,348,109
2153347,307,109
2153355,332,109
2153368,346,109
2153379,311,109
2153388,360,109
2153399,329,109
2153405,327,109
2153419,358,109
2153424,306,109
2153437,343,109
2153450,333,109
2153455,313,109
2153471,362,109
2153481,324,109
2153489,348,109
2153501,362,109
2153512,323,109
2153521,370,109
2153533,339,109
2153538,336,109
2153552,368,109
2153563,320,109
2153573,361,109
2153584,352,109
2153588,330,109
2153604,387,109
2153615,353,109
2153621,371,109
2153635,384,109
2153638,337,109
2153654,373,109
2153666,340,109
2153673,335,109
2153687,367,109
2153687,317,109
2153704,355,109
2153717,348,109
2153728,310,109
2153738,429,115
2153748,636,115
2153755,659,115
2153755,562,115
2153779,196,115
2153788,334,115
2153788,332,115
2153804,316,115
2153820,353,115
2153824,305,115
2153838,344,115
2153851,344,115
2153854,319,115
2153872,367,115
2153873,328,115
2153887,344,115
2153902,368,115
2153906,333,115
2153921,388,115
2153933,372,115
2153937,373,115
2153953,419,115
2153964,376,115
2153973,412,115
2153984,414,115
2153994,388,115
2154004,446,115
2154014,422,115
2154022,449,115
2154035,481,115
2154046,445,115
2154054,489,115
2154066,443,115
2154074,395,115
2154074,396,115
2154097,320,115
2154104,330,115
2154113,317,115
2154122,281,115
2154138,332,115
2154148,299,115
2154154,316,115
2154169,343,115
2154176,298,115
2154187,342,115
2154200,316,115
2154205,297,115
2154220,334,115
2154231,285,115
2154238,317,115
2154251,318,115
2154254,286,115
2154272,333,115
2154282,293,115
2154288,299,115
2154288,321,115
2154313,277,115
2154322,320,115
2154333,301,115
2154343,287,115
2154353,330,115
2154364,283,115
2154374,310,115
2154384,310,115
2154394,270,115
2154404,314,115
2154404,275,115
2154422,280,115
2154435,305,115
2154446,260,115
2154455,304,115
2154466,288,115
2154476,271,115
2154487,313,115
2154498,265,115
2154504,293,115
2154518,297,115
2154524,260,115
2154538,307,115
2154549,273,115
2154554,279,115
2154569,306,115
2154574,259,115
2154588,303,115
2154599,292,115
2154610,273,115
2154620,320,115
2154631,273,115
2154638,299,115
2154652,303,115
2154662,263,115
2154671,320,115
2154682,294,115
2154692,296,115
2154703,326,115
2154705,277,115
2154721,314,115
2154731,302,115
2154737,278,115
2154754,323,115
2154764,276,115
2154774,301,115
2154785,314,115
2154793,260,115
2154804,352,115
2154816,532,111
2154825,658,111
2154837,582,111
2154846,176,111
2154855,283,111
2154866,302,111
2154877,265,111
2154887,310,111
2154888,267,111
2154905,287,111
2154914,301,111
2154927,262,111
2154938,313,111
2154949,287,111
2154954,289,111
2154963,331,111
2154975,289,111
2154987,333,111
2155000,329,111
2155010,304,111
2155021,353,111
2155022,315,111
2155038,340,111
2155052,364,111
2155054,335,111
2155071,399,111
2155074,385,111
2155087,391,111
2155103,434,111
2155113,389,111
2155121,423,112
2155121,405,112
2155137,352,112
2155155,369,112
2155165,304,112
2155175,304,112
2155186,311,112
2155195,264,112
2155204,310,112
2155216,285,112
2155221,277,112
2155236,311,112
2155239,263,112
2155255,298,112
2155267,296,112
2155277,267,112
2155288,315,112
2155288,275,112
2155305,294,112
2155319,316,112
2155329,274,112
2155337,321,112
2155350,296,112
2155354,285,112
2155370,326,112
2155380,278,112
2155388,312,112
2155388,311,112
2155412,280,112
2155421,329,112
2155431,286,112
2155438,295,112
2155452,316,112
2155463,268,112
2155471,313,112
2155483,296,112
2155494,288,112
2155503,329,112
2155505,283,112
2155521,316,112
2155534,315,112
2155544,277,112
2155554,321,112
2155565,278,112
2155571,284,112
2155586,310,112
2155596,267,112
2155604,312,112
2155617,292,112
2155627,278,112
2155637,319,112
2155647,268,112
2155654,293,112
2155668,297,112
2155676,264,112
2155688,315,112
2155698,281,112
2155705,291,112
2155719,319,112
2155722,277,112
2155737,320,112
2155749,301,112
2155760,281,112
2155770,324,112
2155781,274,112
2155788,300,112
2155801,314,112
2155811,286,112
2155821,339,112
2155832,303,112
2155838,310,112
2155852,333,112
2155855,282,112
2155871,323,112
2155883,307,112
2155894,286,112
2155903,332,112
2155914,287,112
2155921,307,112
2155935,326,112
2155944,454,108
2155954,659,108
2155966,658,108
2155975,283,108
2155986,267,108
2155996,292,108
2156004,329,108
2156017,306,108
2156022,287,108
2156037,336,108
2156048,294,108
2156054,319,108
2156069,332,108
2156079,302,108
2156088,352,108
2156098,323,108
2156104,330,108
2156120,367,108
2156125,324,108
2156137,367,108
2156151,366,108
2156155,351,108
2156170,403,108
2156181,364,108
2156187,393,108
2156202,414,108
2156212,383,108
2156220,447,108
2156232,430,108
2156238,436,108
2156253,473,108
2156262,417,108
2156271,436,108
2156284,402,108
2156294,348,108
2156304,368,108
2156314,310,108
2156321,317,108
2156335,330,108
2156345,292,108
2156354,342,108
2156354,320,108
2156376,314,108
2156386,352,108
2156397,301,108
2156404,341,108
2156404,337,108
2156422,309,108
2156431,355,108
2156438,315,108
2156454,334,108
2156468,354,108
2156476,314,108
2156487,365,108
2156499,341,108
2156510,338,108
2156520,377,108
2156526,330,108
2156539,364,108
2156550,358,108
2156561,328,108
2156571,375,108
2156576,338,108
2156587,354,108
2156602,377,108
2156605,337,108
2156621,384,108
2156633,358,108
2156638,352,108
2156653,388,108
2156664,342,108
2156670,375,108
2156684,371,108
2156694,340,108
2156704,387,108
2156712,345,108
2156721,359,108
2156721,380,108
2156737,336,108
2156754,380,108
2156766,365,108
2156772,360,108
2156786,391,108
2156797,344,108
2156805,368,108
2156818,363,108
2156826,329,108
2156837,377,108
2156837,338,108
2156855,348,108
2156868,372,108
2156879,325,108
2156888,361,108
2156900,437,113
2156910,657,113
2156920,659,113
2156931,494,113
2156937,252,113
2156952,349,113
2156961,332,113
2156971,372,113
2156981,332,113
2156987,342,113
2157002,366,113
2157012,322,113
2157021,365,113
2157033,346,113
2157038,332,113
2157054,374,113
2157054,331,113
2157072,366,113
2157084,378,113
2157088,348,113
2157104,396,113
2157115,364,113
2157124,376,113
2157136,402,113
2157138,360,113
2157155,411,113
2157167,404,113
2157174,402,113
2157187,458,113
2157188,422,113
2157204,452,113
2157218,451,113
2157228,392,113
2157238,404,113
2157249,333,113
2157254,310,113
2157269,319,113
2157277,262,113
2157287,303,113
2157300,289,113
2157310,276,113
2157320,325,113
2157331,280,113
2157338,307,113
2157351,317,113
2157361,280,113
2157371,324,113
2157382,289,113
2157388,290,113
2157403,319,113
2157413,271,113
2157422,309,113
2157422,294,113
2157444,271,113
2157454,314,113
2157464,272,113
2157470,296,113
2157485,309,113
2157495,271,113
2157504,319,113
2157516,286,113
2157525,286,113
2157536,316,113
2157538,264,113
2157555,303,113
2157567,290,113
2157576,266,113
2157587,313,113
2157597,271,113
2157604,294,113
2157618,307,113
2157622,268,113
2157637,315,113
2157650,284,113
2157659,282,113
2157669,315,113
2157680,267,113
2157688,306,113
2157700,298,113
2157705,274,113
2157721,323,113
2157725,278,113
2157737,298,113
2157752,313,113
2157762,270,113
2157771,317,113
2157778,289,113
2157787,286,113
2157802,321,113
2157813,274,113
2157821,313,113
2157834,308,113
2157844,281,113
2157855,330,113
2157864,285,113
2157872,305,113
2157878,319,113
2157895,276,113
2157905,333,113
2157914,317,113
2157926,313,113
2157937,347,113
2157946,298,113
2157955,328,113
2157966,318,113
2157977,288,113
2157988,334,113
2157999,291,113
2158004,306,113
2158019,327,113
2158029,275,113
2158038,340,113
2158038,491,114
2158055,658,114
2158064,655,114
2158078,237,114
2158087,267,114
2158101,322,114
2158108,279,114
2158121,321,114
2158121,280,114
2158137,294,114
2158137,316,114
2158158,272,114
2158171,320,114
2158183,300,114
2158193,294,114
2158203,337,114
2158214,295,114
2158221,335,114
2158235,337,114
2158245,307,114
2158254,360,114
2158265,325,114
2158272,342,114
2158285,375,114
2158288,340,114
2158305,399,114
2158315,390,114
2158327,388,114
2158337,438,114
2158347,393,114
2158355,425,114
2158355,421,114
2158378,367,114
2158387,388,114
2158398,323,114
2158405,311,114
2158419,322,114
2158421,269,114
2158438,310,114
2158450,293,114
2158460,278,114
2158470,319,114
2158480,271,114
2158488,300,114
2158488,303,114
2158505,270,114
2158521,321,114
2158521,286,114
2158542,293,114
2158552,320,114
2158562,273,114
2158571,314,114
2158583,296,114
2158593,279,114
2158604,320,114
2158614,275,114
2158621,304,114
2158634,313,114
2158644,277,114
2158654,327,114
2158654,289,114
2158671,292,114
2158681,322,114
2158688,273,114
2158704,316,114
2158716,302,114
2158721,287,114
2158736,332,114
2158738,287,114
2158755,312,114
2158764,322,114
2158772,281,114
2158788,327,114
2158799,292,114
2158805,291,114
2158819,321,114
2158829,275,114
2158837,317,114
2158837,306,114
2158855,284,114
2158871,328,114
2158879,281,114
2158888,303,114
2158902,314,114
2158912,274,114
2158922,322,114
2158931,290,114
2158938,294,114
2158953,326,114
2158963,281,114
2158973,320,114
2158984,308,114
2158988,285,114
2159004,329,114
2159014,285,114
2159021,307,114
2159035,321,114
2159045,286,114
2159054,335,114
2159065,306,114
2159076,314,114
2159086,354,114
2159088,306,114
2159105,339,114
2159117,325,114
2159121,293,114
2159137,335,114
2159148,290,114
2159156,314,114
2159168,333,114
2159179,294,114
2159188,344,114
2159199,305,114
2159210,317,114
2159220,535,109
2159230,658,109
2159238,654,109
2159250,263,109
2159255,234,109
2159270,342,109
2159281,293,109
2159287,306,109
2159302,326,109
2159305,282,109
2159321,331,109
2159332,304,109
2159338,302,109
2159353,341,109
2159354,294,109
2159371,336,109
2159384,340,109
2159394,315,109
2159404,368,109
2159415,336,109
2159421,358,109
2159435,384,109
2159438,348,109
2159454,392,109
2159466,369,109
2159471,366,109
2159486,417,109
2159497,382,109
2159505,427,109
2159517,435,109
2159526,408,109
2159538,454,109
2159548,394,109
2159554,376,109
2159569,367,109
2159573,298,109
2159588,326,109
2159600,292,109
2159604,277,109
2159620,322,109
2159630,283,109
2159638,319,109
2159638,323,109
2159662,297,109
2159671,343,109
2159682,303,109
2159687,315,109
2159701,341,109
2159704,295,109
2159721,340,109
2159733,316,109
2159738,306,109
2159754,351,109
2159762,308,109
2159770,344,109
2159784,350,109
2159789,318,109
2159804,367,109
2159815,330,109
2159822,332,109
2159828,358,109
2159838,310,109
2159854,354,109
2159867,340,109
2159877,329,109
2159887,374,109
2159888,331,109
2159905,362,109
2159914,369,109
2159920,335,109
2159938,383,109
2159949,350,109
2159955,356,109
2159969,381,109
2159978,336,109
2159988,377,109
2160000,362,109
2160004,348,109
2160020,389,109
2160031,346,109
2160037,375,109
2160051,379,109
2160054,341,109
2160070,389,109
2160082,354,109
2160088,356,109
2160103,384,109
2160113,343,109
2160121,395,109
2160133,381,109
2160138,357,109
2160154,394,109
2160164,341,109
2160174,363,109
2160180,367,109
2160194,327,109
2160205,372,109
2160214,342,109
2160222,346,109
2160222,370,109
2160242,334,109
2160254,548,110
2160267,659,110
2160277,658,110
2160288,349,110
2160298,259,110
2160304,353,110
2160318,358,110
2160329,315,110
2160338,362,110
2160349,331,110
2160354,330,110
2160370,364,110
2160377,318,110
2160388,358,110
2160400,351,110
2160410,332,110
2160420,387,110
2160431,352,110
2160438,380,110
2160451,401,110
2160455,364,110
2160470,414,110
2160482,387,110
2160488,385,110
2160488,424,110
2160505,382,110
2160521,431,110
2160534,434,110
2160538,418,110
2160555,472,110
2160564,432,110
2160571,442,110
2160584,430,110
2160595,351,110
2160604,363,110
2160616,310,110
2160622,288,110
2160637,318,110
2160646,270,110
2160654,308,110
2160667,307,110
2160677,285,110
2160687,336,110
2160698,295,110
2160704,309,110
2160718,323,110
2160721,277,110
2160737,318,110
2160737,288,110
2160760,280,110
2160770,315,110
2160779,265,110
2160787,295,110
2160787,291,110
2160811,262,110
2160821,312,110
2160832,274,110
2160838,291,110
2160838,310,110
2160862,269,110
2160871,313,110
2160883,288,110
2160888,274,110
2160903,307,110
2160912,256,110
2160924,286,110
2160934,288,110
2160938,258,110
2160954,308,110
2160964,270,110
2160975,284,110
2160985,306,110
2160995,261,110
2161004,303,110
2161016,280,110
2161023,266,110
2161037,308,110
2161047,265,110
2161055,299,110
2161067,304,110
2161078,272,110
2161087,318,110
2161090,279,110
2161104,286,110
2161118,311,110
2161125,264,110
2161138,310,110
2161150,293,110
2161155,280,110
2161170,326,110
2161171,280,110
2161187,310,110
2161201,316,110
2161211,278,110
2161221,324,110
2161232,295,110
2161237,308,110
2161252,333,110
2161263,286,110
2161271,327,110
2161284,307,110
2161288,289,110
2161304,331,110
2161305,284,110
2161321,311,110
2161334,317,110
2161345,281,110
2161354,318,110
2161365,318,110
2161371,530,110
2161386,658,110
2161396,599,110
2161405,237,110
2161416,275,110
2161427,295,110
2161437,322,110
2161447,273,110
2161455,299,110
2161455,310,110
2161472,276,110
2161488,327,110
2161489,297,110
2161504,304,110
2161519,338,110
2161521,293,110
2161538,339,110
2161550,330,110
2161560,314,110
2161571,361,110
2161577,316,110
2161587,347,110
2161601,363,110
2161604,333,110
2161620,393,110
2161632,374,110
2161638,388,110
2161653,431,110
2161663,392,110
2161671,433,110
2161683,421,110
2161688,388,110
2161704,412,110
2161714,338,110
2161721,335,110
2161735,329,110
2161745,274,110
2161754,314,110
2161766,280,110
2161775,280,110
2161784,315,110
2161788,267,110
2161804,307,110
2161817,298,110
2161828,274,110
2161838,321,110
2161847,277,110
2161855,296,110
2161855,311,110
2161871,269,110
2161888,319,110
2161888,291,110
2161905,287,110
2161919,322,110
2161930,275,110
2161938,310,110
2161950,306,110
2161961,279,110
2161970,326,110
2161981,283,110
2161988,302,110
2161988,317,110
2162012,275,110
2162021,320,110
2162021,293,110
2162039,291,110
2162053,330,110
2162063,283,110
2162071,318,110
2162083,313,110
2162094,284,110
2162104,330,110
2162115,286,110
2162121,301,110
2162136,321,110
2162145,278,110
2162154,323,110
2162165,298,110
2162172,290,110
2162187,327,110
2162197,279,110
2162204,315,110
2162204,314,110
2162227,283,110
2162237,330,110
2162238,288,110
2162255,301,110
2162269,322,110
2162271,277,110
2162288,323,110
2162288,301,110
2162304,290,110
2162319,330,110
2162321,283,110
2162338,318,110
2162351,319,110
2162354,287,110
2162372,339,110
2162372,298,110
2162388,306,110
2162402,337,110
2162412,299,110
2162421,343,110
2162433,317,110
2162438,302,110
2162453,336,110
2162464,288,110
2162473,316,110
2162484,322,110
2162494,288,110
2162504,337,110
2162515,300,110
2162522,298,110
2162536,332,110
2162546,445,106
2162554,659,106
2162566,657,106
2162572,257,106
2162587,262,106
2162597,289,106
2162604,312,106
2162618,312,106
2162624,281,106
2162637,333,106
2162648,300,106
2162655,308,106
2162664,337,106
2162671,296,106
2162688,341,106
2162700,328,106
2162710,318,106
2162720,368,106
2162730,326,106
2162737,358,106
2162751,371,106
2162761,341,106
2162772,395,106
2162782,366,106
2162787,376,106
2162787,416,106
2162812,382,106
2162821,437,106
2162834,434,106
2162838,422,106
2162838,468,106
2162864,419,106
2162871,424,106
2162884,399,106
2162889,329,106
2162905,352,106
2162915,304,106
2162922,297,106
2162936,327,106
2162946,280,106
2162954,323,106
2162966,314,106
2162977,290,106
2162987,334,106
2162997,290,106
2163004,308,106
2163018,318,106
2163028,277,106
2163039,326,106
2163039,297,106
2163055,300,106
2163069,336,106
2163080,295,106
2163088,336,106
2163100,332,106
2163110,311,106
2163120,358,106
2163121,314,106
2163141,333,106
2163151,350,106
2163162,305,106
2163171,351,106
2163182,323,106
2163193,318,106
2163203,354,106
2163213,313,106
2163221,352,106
2163221,348,106
2163237,324,106
2163254,375,106
2163263,334,106
2163271,352,106
2163285,370,106
2163288,328,106
2163305,376,106
2163316,347,106
2163321,343,106
2163337,379,106
2163346,333,106
2163354,370,106
2163367,367,106
2163378,340,106
2163387,389,106
2163398,348,106
2163405,366,106
2163418,385,106
2163428,342,106
2163438,385,106
2163450,365,106
2163454,366,106
2163470,402,110
2163479,354,110
2163487,384,110
2163500,373,110
2163511,342,110
2163521,387,110
2163522,346,110
2163537,356,110
2163552,378,110
2163556,331,110
2163570,361,110
2163582,380,110
2163588,590,110
2163603,660,110
2163604,637,110
2163622,262,110
2163630,319,110
2163637,331,110
2163654,370,110
2163665,326,110
2163671,335,110
2163685,360,110
2163696,316,110
2163704,362,110
2163715,346,110
2163726,336,110
2163736,376,110
2163747,334,110
2163754,372,110
2163767,382,110
2163772,354,110
2163788,406,110
2163798,373,110
2163804,383,110
2163819,409,110
2163823,365,110
2163838,412,110
2163850,403,110
2163854,401,110
2163870,458,110
2163880,422,110
2163887,457,110
2163901,458,110
2163911,407,110
2163921,425,110
2163931,353,110
2163942,328,110
2163952,334,110
2163963,276,110
2163971,315,110
2163971,301,110
2163993,289,110
2164003,333,110
2164014,292,110
2164021,319,110
2164035,324,110
2164038,280,110
2164054,327,110
2164065,291,110
2164074,296,110
2164086,329,110
2164088,284,110
2164104,325,110
2164116,310,110
2164126,287,110
2164126,327,110
2164138,280,110
2164154,303,110
2164167,316,110
2164178,278,110
2164188,329,110
2164199,300,110
2164205,303,110
2164205,335,110
2164229,285,110
2164238,319,110
2164250,303,110
2164254,275,110
2164270,315,110
2164281,270,110
2164288,295,110
2164301,309,110
2164311,275,110
2164320,327,110
2164332,295,110
2164337,291,110
2164353,320,110
2164363,271,110
2164371,306,110
2164375,296,110
2164394,273,110
2164404,318,110
2164414,278,110
2164421,299,110
2164435,315,110
2164445,276,110
2164454,321,110
2164465,294,110
2164476,288,110
2164485,318,110
2164497,272,110
2164504,320,110
2164517,318,110
2164527,289,110
2164538,335,110
2164548,286,110
2164554,298,110
2164568,314,110
2164578,273,110
2164588,319,110
2164599,291,110
2164604,287,110
2164620,324,110
2164630,265,110
2164638,368,110
2164650,599,110
2164655,658,110
2164671,512,110
2164682,177,110
2164688,279,110
2164701,314,110
2164712,259,110
2164721,304,110
2164724,282,110
2164737,275,110
2164753,317,110
2164754,270,110
2164771,305,110
2164771,305,110
2164792,278,110
2164804,330,110
2164815,294,110
2164821,313,110
2164835,340,110
2164845,300,110
2164854,348,110
2164866,330,110
2164871,327,110
2164887,376,110
2164896,344,110
2164904,391,110
2164916,405,110
2164927,383,110
2164937,439,110
2164949,401,110
2164954,406,110
2164968,416,110
2164972,345,110
2164988,359,110
2164999,316,110
2165004,286,110
2165020,316,110
2165022,262,110
2165038,291,110
2165050,295,110
2165061,261,110
2165071,310,110
2165072,273,110
2165088,282,110
2165088,311,110
2165112,264,110
2165121,310,110
2165132,291,110
2165138,275,110
2165148,317,110
2165155,271,110
2165172,300,110
2165172,305,110
2165188,270,110
2165204,322,110
2165215,286,110
2165221,293,110
2165235,322,110
2165238,277,110
2165254,319,110
2165264,304,110
2165271,286,110
2165287,331,110
2165288,285,110
2165304,314,110
2165318,324,110
2165321,288,110
2165338,338,110
2165338,304,110
2165358,310,110
2165368,338,110
2165372,287,110
2165387,325,110
2165400,297,110
2165410,276,110
2165419,325,110
2165421,281,110
2165437,310,110
2165451,321,110
2165461,286,110
2165471,338,110
2165482,304,110
2165488,304,110
2165502,335,110
2165513,288,110
2165520,329,110
2165533,315,110
2165538,298,110
2165554,347,110
2165555,303,110
2165571,328,110
2165571,339,110
2165588,298,110
2165605,349,110
2165615,312,110
2165621,307,110
2165636,345,110
2165646,307,110
2165654,352,110
2165667,339,110
2165677,312,110
2165686,355,110
2165689,304,110
2165705,323,110
2165718,338,110
2165722,296,110
2165738,344,110
2165749,315,110
2165754,310,110
2165770,334,110
2165780,378,110
2165788,655,108
2165799,659,108
2165810,443,108
2165821,242,108
2165831,287,108
2165838,313,108
2165851,317,108
2165861,273,108
2165871,321,108
2165871,294,108
2165888,288,108
2165888,320,108
2165913,275,108
2165921,315,108
2165934,316,108
2165943,295,108
2165954,349,108
2165964,309,108
2165971,331,108
2165985,354,108
2165988,311,108
2166005,360,108
2166016,340,108
2166021,339,108
2166021,391,108
2166046,357,108
2166055,406,108
2166068,414,108
2166071,393,108
2166087,443,108
2166097,394,108
2166104,390,108
2166113,382,108
2166129,307,108
2166137,328,108
2166149,285,108
2166159,265,108
2166170,305,108
2166171,259,108
2166189,298,108
2166200,302,108
2166211,271,108
2166221,321,108
2166222,283,108
2166238,293,108
2166252,314,108
2166255,267,108
2166271,311,108
2166283,287,108
2166289,275,108
2166303,317,108
2166313,273,108
2166321,308,108
2166333,312,108
2166344,281,108
2166354,333,108
2166365,294,108
2166375,303,108
2166375,328,108
2166396,282,108
2166405,323,108
2166413,304,108
2166422,291,108
2166422,333,108
2166447,284,108
2166455,316,108
2166467,322,108
2166478,286,108
2166488,336,108
2166498,302,108
2166505,313,108
2166519,339,108
2166530,295,108
2166538,340,108
2166549,322,108
2166555,309,108
2166569,351,108
2166573,306,108
2166589,334,108
2166589,337,108
2166611,298,108
2166621,347,108
2166621,312,108
2166637,316,108
2166652,348,108
2166655,305,108
2166672,351,108
2166672,332,108
2166689,315,108
2166703,372,108
2166714,335,108
2166724,361,108
2166733,368,108
2166745,326,108
2166754,370,108
2166765,337,108
2166772,345,108
2166772,376,108
2166796,332,108
2166806,376,108
2166814,365,108
2166821,333,108
2166837,417,95
2166847,597,95
2166854,659,95
2166867,655,95
2166871,250,95
2166887,345,95
2166899,361,95
2166904,357,95
2166920,385,95
2166929,339,95
2166938,380,95
2166950,369,95
2166960,350,95
2166971,397,95
2166981,353,95
2166989,377,95
2166989,392,95
2167005,359,95
2167021,415,95
2167032,391,95
2167038,398,95
2167052,435,95
2167062,392,95
2167072,432,95
2167072,421,95
2167090,400,95
2167104,455,95
2167115,422,95
2167121,457,95
2167135,479,95
2167144,445,103
2167155,493,103
2167163,447,103
2167172,411,103
2167186,408,103
2167197,334,103
2167205,354,103
2167216,335,103
2167222,306,103
2167236,355,103
2167247,317,103
2167254,338,103
2167267,354,103
2167278,310,103
2167288,350,103
2167299,314,103
2167304,303,103
2167319,333,103
2167324,285,103
2167338,323,103
2167350,321,103
2167357,295,103
2167371,342,103
2167381,299,103
2167390,316,103
2167402,332,103
2167404,290,103
2167421,339,103
2167430,311,103
2167437,305,103
2167452,342,103
2167455,294,103
2167471,325,103
2167484,315,103
2167490,282,103
2167504,326,103
2167514,279,103
2167521,296,103
2167535,316,103
2167545,276,103
2167554,329,103
2167566,308,103
2167575,303,103
2167586,339,103
2167597,289,103
2167604,320,103
2167617,313,103
2167627,280,103
2167637,328,103
2167647,286,103
2167655,301,103
2167655,327,103
2167671,280,103
2167688,326,103
2167691,303,103
2167705,291,103
2167720,329,103
2167730,277,103
2167738,314,103
2167751,325,103
2167754,297,103
2167771,344,103
2167782,307,103
2167790,314,103
2167802,333,103
2167804,286,103
2167821,330,103
2167825,307,103
2167843,292,103
2167853,334,103
2167863,284,103
2167872,306,103
2167884,405,96
2167890,628,96
2167904,658,96
2167915,403,96
2167922,200,96
2167922,318,96
2167946,277,96
2167954,310,96
2167963,290,96
2167976,278,96
2167987,322,96
2167997,273,96
2168004,308,96
2168018,316,96
2168027,283,96
2168037,333,96
2168048,300,96
2168054,315,96
2168069,349,96
2168079,305,96
2168088,354,96
2168100,339,96
2168110,323,96
2168120,374,96
2168130,334,96
2168137,372,96
2168151,391,96
2168161,372,96
2168171,437,96
2168181,409,96
2168190,418,106
2168202,441,106
