Timestamp,ECGValue,BPM
1710225,320,109
1710235,355,109
1710245,324,109
1710256,329,109
1710261,340,109
1710275,307,109
1710287,335,109
1710295,319,109
1710307,310,109
1710317,339,109
1710327,307,109
1710338,319,109
1710346,336,109
1710346,492,107
1710369,659,107
1710378,657,107
1710389,266,107
1710395,266,107
1710407,296,107
1710420,321,107
1710428,305,107
1710440,298,107
1710450,332,107
1710460,296,107
1710461,317,107
1710481,324,107
1710492,300,107
1710502,339,107
1710511,315,107
1710523,328,107
1710529,353,107
1710543,325,107
1710553,361,107
1710562,357,107
1710562,352,107
1710579,391,107
1710579,364,107
1710595,389,107
1710612,403,107
1710626,384,107
1710635,428,107
1710645,412,107
1710645,418,107
1710661,442,106
1710676,397,106
1710679,402,106
1710696,361,106
1710707,313,106
1710718,320,106
1710728,271,106
1710729,274,106
1710746,281,106
1710746,255,106
1710762,293,106
1710779,277,106
1710789,281,106
1710795,307,106
1710809,273,106
1710821,300,106
1710828,293,106
1710841,278,106
1710851,310,106
1710862,277,106
1710871,293,106
1710879,309,106
1710879,286,106
1710902,326,106
1710911,313,106
1710923,316,106
1710929,349,106
1710943,322,106
1710954,351,106
1710962,348,106
1710974,325,106
1710979,356,106
1710995,322,106
1711005,328,106
1711011,343,106
1711025,317,106
1711036,354,106
1711045,337,106
1711056,339,106
1711062,374,106
1711077,346,106
1711087,377,106
1711095,382,106
1711108,362,106
1711118,397,106
1711127,366,106
1711138,368,106
1711144,390,106
1711159,369,106
1711165,403,115
1711179,387,115
1711190,376,115
1711195,398,115
1711211,361,115
1711220,386,115
1711228,384,115
1711241,361,115
1711245,391,115
1711261,359,115
1711264,353,115
1711279,394,115
1711293,556,115
1711302,659,115
1711311,658,115
1711322,316,115
1711328,324,115
1711343,357,115
1711354,376,115
1711364,374,115
1711374,347,115
1711385,376,115
1711395,346,115
1711405,344,115
1711411,360,115
1711425,331,115
1711436,368,115
1711445,363,115
1711445,354,115
1711462,397,115
1711477,371,115
1711488,394,115
1711495,401,115
1711508,372,115
1711518,406,115
1711528,382,115
1711538,389,115
1711549,419,115
1711559,395,115
1711570,436,115
1711578,436,115
1711591,430,115
1711600,461,115
1711611,409,115
1711620,390,115
1711629,364,115
1711641,302,115
1711645,312,115
1711661,273,115
1711672,268,115
1711679,293,115
1711679,263,115
1711696,295,115
1711712,297,115
1711724,287,115
1711729,325,115
1711744,294,115
1711754,304,115
1711761,310,115
1711774,277,115
1711779,308,115
1711795,288,115
1711806,284,115
1711812,307,115
1711826,273,115
1711836,300,115
1711845,299,115
1711856,281,115
1711867,316,115
1711877,287,115
1711888,301,115
1711894,317,115
1711908,286,115
1711914,318,115
1711929,295,115
1711940,288,115
1711946,313,115
1711960,274,115
1711969,297,115
1711979,295,115
1711979,275,115
1711996,312,115
1712011,285,115
1712022,297,115
1712028,313,115
1712042,281,115
1712052,315,115
1712061,297,115
1712073,289,115
1712079,318,115
1712079,286,115
1712095,309,115
1712112,311,115
1712124,288,115
1712134,324,115
1712145,296,115
1712155,303,115
1712162,320,115
1712175,287,115
1712186,319,115
1712195,304,115
1712206,296,115
1712214,329,115
1712214,296,115
1712229,319,115
1712246,322,115
1712257,294,115
1712261,335,115
1712277,315,115
1712288,321,115
1712298,336,115
1712309,301,115
1712316,329,115
1712329,310,115
1712340,296,115
1712346,330,115
1712346,294,115
1712370,311,115
1712379,318,115
1712379,289,115
1712401,319,115
1712412,402,112
1712422,651,112
1712428,658,112
1712442,371,112
1712445,224,112
1712462,300,112
1712471,287,112
1712479,309,112
1712479,278,112
1712496,295,112
1712513,305,112
1712524,276,112
1712528,311,112
1712544,289,112
1712555,291,112
1712561,318,112
1712575,290,112
1712586,326,112
1712595,323,112
1712606,308,112
1712615,347,112
1712615,318,112
1712637,334,112
1712646,349,112
1712646,329,112
1712668,382,112
1712678,383,112
1712689,390,112
1712695,423,112
1712709,399,112
1712719,434,112
1712728,423,112
1712739,381,112
1712745,386,112
1712745,325,112
1712771,309,112
1712778,302,112
1712791,263,112
1712801,296,112
1712811,280,112
1712820,279,112
1712828,311,112
1712843,279,112
1712846,306,112
1712861,305,112
1712873,281,112
1712884,316,112
1712893,283,112
1712905,291,112
1712912,306,112
1712919,273,112
1712935,308,112
1712945,291,112
1712945,283,112
1712962,315,112
1712971,279,112
1712986,304,112
1712995,303,112
1713007,280,112
1713017,315,112
1713028,285,112
1713038,291,112
1713045,312,112
1713058,276,112
1713067,309,112
1713078,294,112
1713089,284,112
1713095,317,112
1713108,284,112
1713120,308,112
1713128,313,112
1713141,289,112
1713145,325,112
1713160,299,112
1713170,304,112
1713179,324,112
1713192,288,112
1713195,320,112
1713211,307,112
1713223,295,112
1713229,330,112
1713244,298,112
1713253,318,112
1713263,327,112
1713274,300,112
1713278,338,112
1713294,313,112
1713304,317,112
1713312,340,112
1713325,303,112
1713335,335,112
1713345,324,112
1713346,309,112
1713362,340,112
1713377,307,112
1713386,325,112
1713395,332,112
1713406,305,112
1713417,341,112
1713428,318,112
1713438,322,112
1713445,348,112
1713459,310,112
1713469,337,112
1713478,329,112
1713489,319,112
1713500,356,112
1713510,317,112
1713520,329,112
1713528,337,112
1713541,302,112
1713551,336,112
1713561,318,112
1713571,309,112
1713581,334,112
1713593,297,112
1713594,322,112
1713612,305,112
1713622,354,112
1713629,624,106
1713629,659,106
1713654,526,106
1713661,220,106
1713674,271,106
1713684,328,106
1713695,296,106
1713705,291,106
1713711,317,106
1713725,280,106
1713736,306,106
1713745,304,106
1713756,285,106
1713765,324,106
1713765,298,106
1713787,317,106
1713795,342,106
1713808,316,106
1713818,353,106
1713829,339,106
1713838,334,106
1713845,366,106
1713859,336,106
1713869,367,106
1713877,374,106
1713889,362,106
1713895,413,106
1713911,399,106
1713920,419,106
1713929,443,106
1713929,407,106
1713951,424,106
1713961,378,106
1713971,335,106
1713979,334,106
1713979,278,106
1713996,286,106
1714012,284,106
1714022,261,106
1714028,300,106
1714043,281,106
1714053,292,106
1714061,314,106
1714074,281,106
1714085,314,106
1714095,302,106
1714104,292,106
1714112,317,106
1714126,279,106
1714135,298,106
1714144,303,106
1714156,279,106
1714167,319,106
1714177,299,106
1714187,308,106
1714195,337,106
1714208,307,106
1714218,336,106
1714228,321,106
1714239,305,106
1714245,331,106
1714259,293,106
1714270,306,106
1714278,309,106
1714290,282,106
1714295,318,106
1714311,299,106
1714321,306,106
1714329,336,106
1714341,307,106
1714345,341,106
1714362,337,106
1714371,322,106
1714379,358,106
1714393,327,106
1714395,344,106
1714412,352,106
1714423,324,106
1714433,361,106
1714444,339,106
1714454,342,106
1714464,368,106
1714475,337,106
1714478,371,106
1714495,372,106
1714506,361,106
1714516,399,106
1714516,383,106
1714536,409,112
1714545,412,112
1714557,380,112
1714562,405,112
1714577,372,112
1714588,365,112
1714595,390,112
1714608,353,112
1714619,381,112
1714629,375,112
1714639,357,112
1714646,382,112
1714660,421,112
1714664,657,112
1714678,660,112
1714690,589,112
1714695,269,112
1714711,329,112
1714719,355,112
1714729,375,112
1714729,338,112
1714745,364,112
1714762,363,112
1714772,338,112
1714779,371,112
1714793,344,112
1714803,357,112
1714811,377,112
1714824,348,112
1714834,390,112
1714844,380,112
1714854,377,112
1714864,410,111
1714875,379,111
1714885,404,111
1714894,408,111
1714894,386,111
1714912,428,111
1714920,407,111
1714929,423,111
1714945,455,111
1714957,434,111
1714967,471,111
1714977,451,111
1714988,417,111
1714994,413,111
1715008,343,111
1715019,336,111
1715028,316,111
1715039,278,111
1715045,309,111
1715060,281,111
1715064,288,111
1715078,314,111
1715078,288,111
1715101,322,111
1715111,309,111
1715121,296,111
1715129,326,111
1715142,290,111
1715153,310,111
1715161,315,111
1715172,290,111
1715178,324,111
1715178,297,111
1715204,299,111
1715211,322,111
1715225,288,111
1715234,322,111
1715245,315,111
1715255,302,111
1715262,336,111
1715266,301,111
1715279,317,111
1715296,321,111
1715306,286,111
1715312,316,111
1715327,288,111
1715337,287,111
1715346,311,111
1715346,278,111
1715368,309,111
1715377,301,111
1715388,287,111
1715395,319,111
1715395,285,111
1715419,303,111
1715428,314,111
1715440,284,111
1715450,321,111
1715460,301,111
1715462,301,111
1715478,325,111
1715491,289,111
1715501,320,111
1715511,312,111
1715522,296,111
1715529,329,111
1715542,299,111
1715552,314,111
1715561,325,111
1715573,296,111
1715583,331,111
1715594,323,111
1715604,332,111
1715613,349,111
1715625,311,111
1715634,333,111
1715645,323,111
1715655,301,111
1715662,334,111
1715662,303,111
1715679,313,111
1715695,328,111
1715695,296,111
1715717,322,111
1715727,341,111
1715729,541,111
1715745,659,111
1715758,603,111
1715762,223,111
1715779,276,111
1715779,296,111
1715794,318,111
1715809,286,111
1715820,298,111
1715829,314,111
1715841,279,111
1715845,312,111
1715861,296,111
1715871,289,111
1715879,323,111
1715879,294,111
1715896,325,111
1715912,332,111
1715922,311,111
1715929,351,111
1715929,325,111
1715944,337,111
1715962,359,111
1715974,329,111
1715984,371,111
1715994,372,111
1716004,374,111
1716013,418,111
1716017,395,111
1716029,426,111
1716045,425,111
1716056,384,111
1716062,390,111
1716076,332,111
1716078,306,111
1716096,303,111
1716106,259,111
1716117,286,111
1716127,274,111
1716137,261,111
1716146,298,111
1716158,266,111
1716167,289,111
1716178,296,111
1716189,271,111
1716195,305,111
1716195,279,111
1716214,279,111
1716229,302,111
1716240,267,111
1716251,299,111
1716261,290,111
1716268,275,111
1716278,309,111
1716292,277,111
1716295,295,111
1716312,304,111
1716322,275,111
1716329,311,111
1716343,285,111
1716345,287,111
1716362,313,111
1716374,279,111
1716384,311,111
1716395,304,111
1716405,286,111
1716412,321,111
1716425,290,111
1716429,307,111
1716444,317,111
1716456,288,111
1716465,324,111
1716476,303,111
1716479,303,111
1716496,329,111
1716508,291,111
1716518,320,111
1716528,313,111
1716538,294,111
1716545,329,111
1716559,299,111
1716568,316,111
1716579,328,111
1716590,298,111
1716596,334,111
1716596,316,111
1716620,312,111
1716629,341,111
1716641,306,111
1716645,334,111
1716661,331,111
1716671,311,111
1716679,345,111
1716692,314,111
1716696,326,111
1716713,341,111
1716715,309,111
1716729,343,111
1716743,327,111
1716753,321,111
1716762,351,111
1716774,316,111
1716778,340,111
1716795,342,111
1716805,318,111
1716813,354,111
1716816,324,111
1716836,333,111
1716846,349,111
1716846,319,111
1716862,367,111
1716877,346,111
1716879,333,111
1716895,362,111
1716908,320,111
1716918,340,111
1716928,339,111
1716929,313,111
1716945,347,111
1716960,319,111
1716964,324,111
1716978,334,111
1716989,336,111
1717000,564,102
1717010,659,102
1717021,624,102
1717029,264,102
1717042,268,102
1717051,335,102
1717062,326,102
1717063,300,102
1717079,339,102
1717089,313,102
1717103,317,102
1717113,338,102
1717123,300,102
1717133,332,102
1717144,324,102
1717155,316,102
1717162,355,102
1717175,326,102
1717185,350,102
1717194,362,102
1717205,338,102
1717213,380,102
1717226,359,102
1717236,365,102
1717246,391,102
1717257,366,102
1717265,411,102
1717277,415,102
1717287,411,102
1717294,453,102
1717308,421,103
1717316,428,103
1717329,412,103
1717329,352,103
1717345,359,103
1717359,311,103
1717370,294,103
1717378,312,103
1717390,273,103
1717395,304,103
1717411,303,103
1717420,285,103
1717428,320,103
1717428,287,103
1717452,299,103
1717462,306,103
1717472,272,103
1717478,303,103
1717493,276,103
1717503,274,103
1717513,300,103
1717517,265,103
1717529,295,103
1717544,291,103
1717554,271,103
1717562,305,103
1717575,273,103
1717585,284,103
1717595,296,103
1717606,262,103
1717616,294,103
1717627,276,103
1717636,272,103
1717645,301,103
1717645,267,103
1717663,297,103
1717677,296,103
1717688,274,103
1717695,311,103
1717709,282,103
1717718,292,103
1717728,307,103
1717728,274,103
1717745,309,103
1717760,292,103
1717770,284,103
1717778,313,103
1717790,276,103
1717801,301,103
1717811,299,103
1717817,275,103
1717828,312,103
1717842,282,103
1717846,294,103
1717861,314,103
1717873,282,103
1717878,316,103
1717893,303,103
1717895,293,103
1717911,323,103
1717924,288,103
1717934,312,103
1717945,315,103
1717955,291,103
1717963,323,103
1717975,296,103
1717986,307,103
1717995,329,103
1718006,294,103
1718014,333,103
1718027,338,103
1718036,331,103
1718045,354,103
1718057,321,103
1718067,335,103
1718078,338,103
1718087,308,103
1718095,347,103
1718108,321,103
1718114,328,103
1718129,352,103
1718140,309,103
1718145,367,103
1718160,558,104
1718170,659,104
1718178,657,104
1718190,271,104
1718201,298,104
1718211,368,104
1718221,338,104
1718229,371,104
1718242,349,104
1718252,353,104
1718262,373,104
1718273,336,104
1718278,365,104
1718294,358,104
1718304,348,104
1718314,388,104
1718324,367,104
1718335,397,104
1718345,413,104
1718356,389,104
1718362,429,104
1718376,410,104
1718386,411,104
1718395,436,104
1718406,404,104
1718417,440,104
1718427,443,104
1718438,443,104
1718445,488,104
1718458,466,104
1718467,485,104
1718478,485,104
1718489,424,104
1718495,423,104
1718495,369,104
1718519,340,104
1718529,348,104
1718540,302,104
1718546,326,104
1718546,323,104
1718571,307,104
1718579,345,104
1718591,317,104
1718601,332,104
1718611,343,104
1718622,309,104
1718628,340,104
1718643,318,104
1718652,312,104
1718662,338,104
1718673,302,104
1718679,326,104
1718694,321,104
1718704,301,104
1718714,337,104
1718725,309,104
1718729,323,104
1718744,340,104
1718756,307,104
1718762,340,104
1718776,318,104
1718778,307,104
1718795,332,104
1718807,291,104
1718817,313,104
1718827,312,104
1718837,288,104
1718845,326,104
1718857,300,104
1718864,310,104
1718878,330,104
1718890,298,104
1718895,332,104
1718895,314,104
1718920,303,104
1718928,330,104
1718940,297,104
1718945,319,104
1718961,320,104
1718971,293,104
1718978,329,104
1718991,302,104
1718995,309,104
1719012,328,104
1719019,295,104
1719028,328,104
1719043,313,104
1719054,301,104
1719062,333,104
1719070,298,104
1719079,322,104
1719095,326,104
1719105,301,104
1719115,338,104
1719126,311,104
1719135,316,104
1719145,338,104
1719156,302,104
1719161,332,104
1719176,332,104
1719187,324,104
1719194,346,104
1719207,310,104
1719217,324,104
1719228,326,104
1719238,298,104
1719245,335,104
1719259,310,104
1719269,311,104
1719278,332,104
1719289,290,104
1719295,320,104
1719310,446,105
1719321,657,105
1719329,657,105
1719341,306,105
1719350,235,105
1719362,324,105
1719371,293,105
1719378,323,105
1719392,300,105
1719403,300,105
1719411,324,105
1719415,286,105
1719428,313,105
1719443,304,105
1719446,292,105
1719462,332,105
1719472,304,105
1719479,326,105
1719495,341,105
1719505,314,105
1719515,358,105
1719525,343,105
1719536,344,105
1719545,370,105
1719556,341,105
1719566,378,105
1719577,385,105
1719586,381,105
1719594,432,105
1719607,410,105
1719617,426,106
1719628,432,106
1719638,380,106
1719645,382,106
1719659,330,106
1719669,299,106
1719679,310,106
1719690,265,106
1719695,288,106
1719711,288,106
1719715,271,106
1719730,312,106
1719741,284,106
1719751,299,106
1719761,315,106
1719772,283,106
1719778,315,106
1719792,292,106
1719802,286,106
1719811,314,106
1719823,276,106
1719828,302,106
1719828,300,106
1719854,277,106
1719861,315,106
1719875,286,106
1719885,300,106
1719895,318,106
1719905,286,106
1719915,320,106
1719926,303,106
1719937,292,106
1719945,321,106
1719956,284,106
1719967,308,106
1719977,309,106
1719988,287,106
1719995,326,106
1720008,302,106
1720019,315,106
1720029,331,106
1720039,295,106
1720046,327,106
1720046,311,106
1720070,299,106
1720079,333,106
1720090,301,106
1720100,324,106
1720111,329,106
1720120,303,106
1720129,342,106
1720142,316,106
1720145,323,106
1720162,344,106
1720172,310,106
1720179,343,106
1720179,332,106
1720203,321,106
1720211,353,106
1720224,316,106
1720229,335,106
1720245,340,106
1720254,313,106
1720263,349,106
1720274,324,106
1720285,328,106
1720296,351,106
1720296,316,106
1720316,348,106
1720322,337,106
1720329,322,106
1720346,354,106
1720357,320,106
1720363,339,106
1720378,347,106
1720379,320,106
1720395,359,106
1720408,334,106
1720419,341,106
1720429,377,106
1720429,336,106
1720445,359,106
1720460,344,106
1720469,319,106
1720479,348,106
1720479,313,106
1720501,330,106
1720511,340,106
1720517,311,106
1720528,349,106
1720542,318,106
1720552,366,106
1720561,600,99
1720573,659,99
1720578,617,99
1720593,244,99
1720596,280,99
1720612,351,99
1720624,304,99
1720634,317,99
1720645,327,99
1720655,297,99
1720661,336,99
1720675,313,99
1720686,309,99
1720695,338,99
1720705,306,99
1720716,337,99
1720717,337,99
1720729,323,99
1720745,366,99
1720745,343,99
1720768,363,99
1720778,379,99
1720787,352,99
1720795,390,99
1720809,375,99
1720817,379,99
1720829,421,99
1720840,396,99
1720844,434,99
1720860,440,99
1720870,419,100
1720878,444,100
1720891,386,100
1720901,365,100
1720911,351,100
1720922,295,100
1720928,315,100
1720942,291,100
1720953,284,100
1720961,318,100
1720973,287,100
1720978,316,100
1720994,316,100
1721003,293,100
1721012,327,100
1721024,293,100
1721035,298,100
1721045,313,100
1721046,278,100
1721062,313,100
1721076,299,100
1721079,291,100
1721095,321,100
1721106,287,100
1721116,312,100
1721127,316,100
1721136,291,100
1721145,327,100
1721158,296,100
1721168,301,100
1721178,318,100
1721188,282,100
1721195,316,100
1721210,303,100
1721219,292,100
1721230,325,100
1721240,291,100
1721250,316,100
1721261,321,100
1721270,295,100
1721279,334,100
1721292,305,100
1721301,310,100
1721312,334,100
1721317,299,100
1721329,329,100
1721342,316,100
1721345,302,100
1721362,333,100
1721373,299,100
1721379,320,100
1721394,326,100
1721405,299,100
1721412,335,100
1721425,309,100
1721431,311,100
1721445,334,100
1721455,298,100
1721465,330,100
1721475,322,100
1721486,308,100
1721495,344,100
1721507,309,100
1721516,326,100
1721527,332,100
1721529,301,100
1721545,336,100
1721558,312,100
1721563,314,100
1721578,341,100
1721578,310,100
1721595,344,100
1721609,338,100
1721620,320,100
1721628,358,100
1721641,334,100
1721651,348,100
1721661,348,100
1721671,310,100
1721678,336,100
1721692,309,100
1721702,308,100
1721711,335,100
1721723,301,100
1721728,330,100
1721743,325,100
1721753,294,100
1721762,352,100
1721773,506,99
1721784,658,99
1721794,645,99
1721805,201,99
1721812,275,99
1721825,308,99
1721835,294,99
1721844,317,99
1721856,280,99
1721862,300,99
1721876,293,99
1721886,268,99
1721895,298,99
1721907,266,99
1721917,286,99
1721927,305,99
1721939,282,99
1721945,330,99
1721959,318,99
1721969,317,99
1721978,348,99
1721989,312,99
1721995,340,99
1722010,340,99
1722018,322,99
1722028,371,99
1722041,354,99
1722045,376,99
1722061,407,99
1722069,383,99
1722079,419,99
1722092,390,99
1722096,359,99
1722112,356,99
1722122,283,99
1722129,281,99
1722143,265,99
1722154,234,99
1722161,269,99
1722175,245,99
1722185,262,99
1722194,290,99
1722205,266,99
1722213,305,99
1722226,296,99
1722236,288,99
1722245,319,99
1722256,284,99
1722262,305,99
1722277,308,99
1722287,281,99
1722295,322,99
1722307,300,99
1722317,313,99
1722329,340,99
1722338,314,99
1722346,354,99
1722358,345,99
1722365,334,99
1722378,363,99
1722381,324,99
1722395,339,99
1722410,343,99
1722420,318,99
1722428,357,99
1722440,335,99
1722451,342,99
1722461,369,99
1722472,339,99
1722478,370,99
1722493,361,99
1722502,349,99
1722513,383,99
1722523,349,99
1722533,368,99
1722544,377,99
1722545,350,99
1722562,386,99
1722571,361,99
1722578,364,99
1722595,389,99
1722606,352,99
1722612,384,99
1722626,372,99
1722636,356,99
1722645,401,106
1722645,372,106
1722662,378,106
1722676,382,106
1722688,346,106
1722695,377,106
1722708,355,106
1722718,355,106
1722728,380,106
1722738,343,106
1722745,372,106
1722745,361,106
1722769,332,106
1722778,460,106
1722778,657,106
1722797,659,106
1722811,482,106
1722820,210,106
1722829,345,106
1722841,336,106
1722852,328,106
1722862,352,106
1722872,315,106
1722879,339,106
1722892,330,106
1722895,307,106
1722912,339,106
1722924,309,106
1722928,326,106
1722945,344,106
1722945,321,106
1722961,367,106
1722969,354,106
1722985,354,106
1722995,388,106
1723005,354,106
1723011,385,106
1723026,386,106
1723029,369,106
1723045,414,104
1723057,392,104
1723061,416,104
1723078,441,104
1723088,415,104
1723095,446,104
1723108,405,104
1723118,364,104
1723129,359,104
1723129,298,104
1723145,301,104
1723160,288,104
1723170,260,104
1723179,296,104
1723179,273,104
1723201,288,104
1723211,310,104
1723221,284,104
1723229,326,104
1723229,315,104
1723252,306,104
1723262,336,104
1723273,298,104
1723279,318,104
1723279,314,104
1723303,290,104
1723312,324,104
1723323,293,104
1723334,301,104
1723345,323,104
1723355,292,104
1723362,329,104
1723375,317,104
1723379,307,104
1723395,335,104
1723406,297,104
1723414,316,104
1723418,314,104
1723429,283,104
1723446,316,104
1723446,286,104
1723463,292,104
1723472,313,104
1723488,281,104
1723496,318,104
1723496,308,104
1723519,297,104
1723528,329,104
1723540,292,104
1723545,309,104
1723560,310,104
1723571,280,104
1723579,316,104
1723579,289,104
1723596,294,104
1723612,319,104
1723621,285,104
1723629,316,104
1723642,304,104
1723645,288,104
1723662,319,104
1723673,284,104
1723678,302,104
1723678,310,104
1723704,284,104
1723712,322,104
1723724,298,104
1723735,300,104
1723745,323,104
1723755,288,104
1723762,320,104
1723776,311,104
1723786,294,104
1723795,328,104
1723807,293,104
1723813,307,104
1723827,318,104
1723837,288,104
1723845,326,104
1723857,316,104
1723868,330,104
1723878,348,104
1723879,313,104
1723895,336,104
1723895,320,104
1723919,295,104
1723928,327,104
1723940,293,104
1723946,311,104
1723946,327,104
1723971,293,104
1723979,329,104
1723979,429,103
1723995,657,103
1724011,658,103
1724022,369,103
1724028,236,103
1724042,317,103
1724046,298,103
1724062,326,103
1724073,298,103
1724079,315,103
1724093,330,103
1724104,300,103
1724112,331,103
1724124,309,103
1724129,307,103
1724145,339,103
1724146,311,103
1724162,346,103
1724176,353,103
1724187,335,103
1724195,374,103
1724206,348,103
1724212,363,103
1724227,381,103
1724238,354,103
1724245,397,103
1724258,394,103
1724264,403,103
1724278,446,103
1724289,423,103
1724295,452,103
1724295,447,103
1724320,405,103
1724328,410,103
1724340,348,103
1724345,330,103
1724361,328,103
1724370,282,103
1724378,313,103
1724378,297,103
1724396,291,103
1724412,326,103
1724422,294,103
1724429,319,103
1724443,323,103
1724453,299,103
1724462,335,103
1724473,302,103
1724484,306,103
1724495,324,103
1724504,288,103
1724514,320,103
1724525,305,103
1724535,291,103
1724545,323,103
1724556,290,103
1724562,312,103
1724562,317,103
1724587,291,103
1724594,327,103
1724607,301,103
1724617,306,103
1724627,323,103
1724638,285,103
1724645,316,103
1724658,303,103
1724669,290,103
1724678,321,103
1724689,292,103
1724695,315,103
1724695,321,103
1724720,295,103
1724728,329,103
1724740,304,103
1724751,304,103
1724761,325,103
1724771,288,103
1724778,318,103
1724792,310,103
1724801,293,103
1724812,328,103
1724823,295,103
1724829,314,103
1724843,321,103
1724845,294,103
1724864,333,103
1724874,309,103
1724879,310,103
1724895,332,103
1724896,297,103
1724912,327,103
1724922,319,103
1724929,301,103
1724945,334,103
1724956,302,103
1724962,317,103
1724970,327,103
1724987,299,103
1724995,336,103
1724995,316,103
1725018,313,103
1725028,341,103
1725038,317,103
1725045,343,103
1725059,329,103
1725069,308,103
1725078,336,103
1725089,299,103
1725095,315,103
1725111,328,103
1725119,298,103
1725128,332,103
1725141,310,103
1725145,293,103
1725162,356,103
1725171,522,102
1725179,659,102
1725192,618,102
1725203,195,102
1725211,288,102
1725224,297,102
1725229,297,102
1725244,306,102
1725254,272,102
1725262,305,102
1725274,285,102
1725279,280,102
1725295,308,102
1725305,273,102
1725312,306,102
1725321,309,102
1725328,294,102
1725346,337,102
1725356,309,102
1725362,322,102
1725377,339,102
1725388,308,102
1725396,347,102
1725396,334,102
1725418,333,102
1725428,373,102
1725429,349,102
1725446,387,102
1725460,400,102
1725467,389,102
1725480,426,102
1725480,380,102
1725495,358,102
1725511,341,102
1725521,273,102
1725529,279,102
1725542,247,102
1725546,232,102
1725562,262,102
1725572,235,102
1725579,270,102
1725592,280,102
1725603,263,102
1725612,304,102
1725623,278,102
1725634,285,102
1725644,302,102
1725655,266,102
1725663,296,102
1725666,278,102
1725679,268,102
1725695,302,102
1725706,274,102
1725712,304,102
1725726,314,102
1725729,296,102
1725745,338,102
1725757,311,102
1725764,315,102
1725777,332,102
1725778,296,102
1725795,323,102
1725795,305,102
1725819,290,102
1725829,324,102
1725839,293,102
1725845,316,102
1725860,325,102
1725870,301,102
1725878,336,102
1725890,312,102
1725900,316,102
1725911,338,102
1725921,305,102
1725928,337,102
1725942,327,102
1725952,313,102
1725961,347,102
1725973,316,102
1725978,335,102
1725994,346,102
1726003,323,102
1726012,361,102
1726023,340,102
1726029,353,102
1726044,393,102
1726045,362,102
1726062,389,102
1726074,380,102
1726085,358,102
1726095,391,102
1726106,359,102
1726116,378,102
1726127,388,102
1726128,364,102
1726145,401,107
1726145,372,107
1726161,380,107
1726177,565,107
1726179,659,107
1726195,660,107
1726209,441,107
1726218,283,107
1726228,408,107
1726239,382,107
1726244,391,107
1726260,401,107
1726270,370,107
1726279,402,107
1726291,378,107
1726301,372,107
1726312,403,107
1726321,372,107
1726328,406,107
1726342,411,107
1726352,404,107
1726363,448,107
1726364,423,107
1726379,438,107
1726393,454,107
1726404,421,107
1726413,456,107
1726423,437,107
1726434,435,107
1726444,471,107
1726455,448,107
1726461,486,107
1726476,495,107
1726479,477,107
1726494,499,107
1726507,438,107
1726512,412,107
1726523,390,107
1726537,330,107
1726545,342,107
1726557,314,107
1726568,302,107
1726578,330,107
1726588,299,107
1726596,328,107
1726596,332,107
1726619,311,107
1726628,349,107
1726640,316,107
1726646,320,107
1726646,335,107
1726670,297,107
1726678,327,107
1726690,309,107
1726701,298,107
1726711,327,107
1726722,293,107
1726728,317,107
1726742,322,107
1726753,300,107
1726762,338,107
1726773,310,107
1726778,312,107
1726793,329,107
1726804,290,107
1726812,317,107
1726824,300,107
1726835,284,107
1726845,313,107
1726855,276,107
1726862,300,107
1726876,304,107
1726879,280,107
1726895,319,107
1726906,296,107
1726917,301,107
1726926,323,107
1726937,287,107
1726945,318,107
1726945,305,107
1726968,290,107
1726979,323,107
1726989,288,107
1726995,309,107
1727009,314,107
1727018,284,107
1727028,322,107
1727040,295,107
1727045,296,107
1727045,318,107
1727071,281,107
1727078,312,107
1727092,317,107
1727096,308,107
1727112,338,107
1727122,304,107
1727129,314,107
1727129,318,107
1727145,286,107
1727162,319,107
1727174,294,107
1727179,293,107
1727195,315,107
1727195,276,107
1727214,306,107
1727225,431,110
1727235,656,110
1727245,657,110
1727256,297,110
1727262,218,110
1727276,304,110
1727279,273,110
1727296,302,110
1727307,281,110
1727312,282,110
1727328,308,110
1727331,274,110
1727345,301,110
1727358,295,110
1727369,278,110
1727378,316,110
1727390,290,110
1727395,311,110
1727410,330,110
1727416,304,110
1727429,347,110
1727440,326,110
1727446,323,110
1727461,360,110
1727471,330,110
1727478,365,110
1727492,373,110
1727502,368,110
1727511,419,110
1727523,405,110
1727529,427,110
1727529,430,110
1727553,368,110
1727562,369,110
1727573,318,110
1727584,286,110
1727594,295,110
1727605,251,110
1727611,274,110
1727625,274,110
1727635,255,110
1727646,297,110
1727656,269,110
1727666,280,110
1727676,297,110
1727686,265,110
1727694,298,110
1727707,279,110
1727718,270,110
1727728,299,110
1727738,263,110
1727745,289,110
1727745,289,110
1727761,264,110
1727778,299,110
1727790,268,110
1727795,274,110
1727810,290,110
1727821,256,110
1727828,291,110
1727841,279,110
1727852,271,110
1727861,305,110
1727872,270,110
1727878,292,110
1727892,292,110
1727904,264,110
1727913,302,110
1727914,275,110
1727929,280,110
1727944,301,110
1727954,268,110
1727961,303,110
1727974,290,110
1727985,275,110
1727995,305,110
1728005,267,110
1728014,286,110
1728014,287,110
1728029,261,110
1728046,297,110
1728057,271,110
1728062,275,110
1728076,299,110
1728086,264,110
1728095,295,110
1728107,284,110
1728118,273,110
1728128,308,110
1728129,275,110
1728146,299,110
1728159,309,110
1728162,280,110
1728178,316,110
1728190,291,110
1728195,291,110
1728195,314,110
1728212,276,110
1728228,303,110
1728241,295,110
1728252,280,110
1728262,318,110
1728272,290,110
1728278,312,110
1728292,325,110
1728303,296,110
1728311,330,110
1728323,312,110
1728328,322,110
1728344,340,110
1728354,297,110
1728363,324,110
1728363,312,110
1728385,292,110
1728395,329,110
1728405,298,110
1728412,311,110
1728425,323,110
1728436,289,110
1728445,314,110
1728457,375,110
1728467,626,103
1728477,659,103
1728487,460,103
1728495,211,103
1728508,296,103
1728518,299,103
1728528,325,103
1728539,295,103
1728544,306,103
1728559,321,103
1728570,290,103
1728578,325,103
1728590,307,103
1728596,310,103
1728611,343,103
1728620,316,103
1728628,352,103
1728641,355,103
1728645,340,103
1728661,381,103
1728672,359,103
1728678,378,103
1728693,399,103
1728703,371,103
1728711,412,103
1728724,403,103
1728729,405,103
1728744,448,103
1728754,422,103
1728762,454,103
1728775,451,104
1728785,412,104
1728796,421,104
1728806,360,104
1728812,341,104
1728827,338,104
1728837,297,104
1728845,331,104
1728857,320,104
1728867,324,104
1728878,364,104
1728888,341,104
1728895,370,104
1728895,379,104
1728912,355,104
1728928,390,104
1728940,358,104
1728945,360,104
1728945,376,104
1728970,343,104
1728979,378,104
1728991,371,104
1728995,370,104
1729011,411,104
1729021,385,104
1729029,414,104
1729029,421,104
1729052,390,104
1729062,419,104
1729072,381,104
1729079,372,104
1729093,383,104
1729104,341,104
1729112,369,104
1729125,358,104
1729134,348,104
1729144,382,104
1729155,349,104
1729164,368,104
1729175,375,104
1729179,347,104
1729195,380,104
1729206,352,104
1729211,350,104
1729221,369,104
1729237,332,104
1729245,360,104
1729258,353,104
1729268,335,104
1729278,367,104
1729280,333,104
1729295,349,104
1729295,357,104
1729312,325,104
1729329,369,104
1729340,355,104
1729345,345,104
1729360,367,104
1729370,327,104
1729379,348,104
1729391,340,104
1729401,320,104
1729411,351,104
1729421,315,104
1729429,324,104
1729433,328,104
1729453,287,104
1729462,425,109
1729474,655,109
1729478,658,109
1729494,405,109
1729504,189,109
1729511,309,109
1729524,314,109
1729529,286,109
1729544,317,109
1729556,284,109
1729562,292,109
1729575,302,109
1729579,267,109
1729595,302,109
1729595,289,109
1729612,290,109
1729626,327,109
1729629,304,109
1729645,339,109
1729658,347,109
1729668,332,109
1729678,375,109
1729680,350,109
1729695,366,109
1729695,386,109
1729720,359,109
1729729,404,109
1729739,398,109
1729750,404,109
1729760,442,109
1729771,416,109
1729779,436,109
1729792,416,109
1729801,364,109
1729812,371,109
1729822,319,109
1729828,310,109
1729843,320,109
1729853,289,109
1729862,326,109
1729873,318,109
1729879,311,109
1729879,347,109
1729904,317,109
1729912,341,109
1729925,345,109
1729935,318,109
1729945,354,109
1729955,325,109
1729962,327,109
1729976,342,109
1729979,301,109
1729995,327,109
1730007,312,109
1730012,297,109
1730028,330,109
1730029,298,109
1730045,318,109
1730058,324,109
1730069,298,109
1730078,331,109
1730079,303,109
1730095,304,109
1730109,319,109
1730120,280,109
1730128,307,109
1730140,294,109
1730145,280,109
1730161,315,109
1730171,284,109
1730179,306,109
1730179,317,109
1730194,290,109
1730211,326,109
1730221,301,109
1730228,300,109
1730243,325,109
1730252,288,109
1730262,316,109
1730274,312,109
1730284,295,109
1730294,331,109
1730304,299,109
1730314,313,109
1730325,324,109
1730335,294,109
1730345,328,109
1730346,305,109
1730362,303,109
1730377,331,109
1730387,296,109
1730395,326,109
1730395,322,109
1730417,301,109
1730428,337,109
1730438,302,109
1730446,315,109
1730459,327,109
1730464,294,109
1730478,328,109
1730489,307,109
1730495,305,109
1730495,335,109
1730512,297,109
1730529,326,109
1730541,336,109
1730551,312,109
1730561,340,109
1730569,312,109
1730579,314,109
1730579,321,109
1730595,288,109
1730612,323,109
1730623,304,109
1730629,296,109
1730629,327,109
1730646,281,109
1730662,331,109
1730674,518,109
1730679,658,109
1730695,635,109
1730705,222,109
1730711,256,109
1730725,321,109
1730729,276,109
1730745,304,109
1730756,289,109
1730764,280,109
1730777,313,109
1730787,276,109
1730796,299,109
1730796,302,109
1730817,284,109
1730828,324,109
1730838,302,109
1730845,315,109
1730859,338,109
1730869,307,109
1730879,348,109
1730879,346,109
1730895,339,109
1730910,373,109
1730920,345,109
1730929,378,109
1730929,397,109
1730945,385,109
1730961,434,109
1730972,417,109
1730978,423,109
1730993,434,109
1730996,375,109
1731012,375,109
1731021,333,109
1731029,293,109
1731044,309,109
1731046,267,109
1731062,283,109
1731067,293,109
1731079,270,109
1731094,311,109
1731095,288,109
1731112,288,109
1731126,311,109
1731130,276,109
1731145,304,109
1731156,293,109
1731167,273,109
1731177,309,109
1731188,276,109
1731195,292,109
1731208,300,109
1731213,270,109
1731228,308,109
1731239,284,109
1731245,282,109
1731259,307,109
1731269,271,109
1731279,299,109
1731290,292,109
1731300,273,109
1731311,309,109
1731321,278,109
1731329,293,109
1731329,304,109
1731345,273,109
1731362,310,109
1731372,288,109
1731379,285,109
1731392,311,109
1731396,277,109
1731412,305,109
1731423,302,109
1731430,282,109
1731445,316,109
1731445,283,109
1731462,293,109
1731471,302,109
1731480,269,109
1731495,305,109
1731506,287,109
1731512,283,109
1731526,313,109
1731530,280,109
1731545,309,109
1731557,308,109
1731567,284,109
1731578,318,109
1731587,287,109
1731595,296,109
1731595,310,109
1731619,279,109
1731629,313,109
1731630,296,109
1731645,289,109
1731660,317,109
1731670,283,109
1731678,308,109
1731690,308,109
1731701,284,109
1731711,322,109
1731722,293,109
1731730,298,109
1731730,319,109
1731746,303,109
1731762,346,109
1731771,320,109
1731780,310,109
1731793,334,109
1731803,294,109
1731812,311,109
1731823,314,109
1731834,289,109
1731844,328,109
1731855,304,109
1731862,307,109
1731875,321,109
1731885,396,109
1731896,658,104
1731896,658,104
1731912,398,104
1731926,231,104
1731937,286,104
1731945,316,104
1731958,318,104
1731967,293,104
1731978,329,104
1731988,307,104
1731995,313,104
1732008,331,104
1732016,299,104
1732028,339,104
1732039,332,104
1732045,321,104
1732059,362,104
1732070,339,104
1732078,362,104
1732090,378,104
1732095,359,104
1732111,402,104
1732122,385,104
1732130,390,104
1732142,416,104
1732145,384,104
1732163,423,104
1732173,422,104
1732179,413,104
1732179,452,104
1732204,421,104
1732212,424,104
1732224,403,104
1732235,346,104
1732245,354,104
1732255,311,104
1732262,295,104
1732275,315,104
1732285,281,104
1732295,317,104
1732307,318,104
1732314,307,104
1732327,349,104
1732337,320,104
1732345,335,104
1732345,346,104
1732362,316,104
1732378,349,104
1732389,330,104
1732395,326,104
1732395,356,104
1732413,330,104
1732429,364,104
1732440,370,104
1732446,359,104
1732460,402,104
1732471,374,104
1732479,384,104
1732491,395,104
1732495,356,104
1732512,382,104
1732517,360,104
1732531,350,104
1732531,379,104
1732545,344,104
1732561,373,104
1732573,374,104
1732579,352,104
1732593,389,104
1732605,361,104
1732612,370,104
1732625,388,104
1732635,357,104
1732644,391,104
1732645,376,104
1732661,367,104
1732676,396,104
1732679,358,104
1732695,379,104
1732707,376,104
1732717,349,104
1732727,385,104
1732738,354,104
1732745,361,104
1732759,385,104
1732764,366,104
1732778,394,104
1732789,373,104
1732795,359,104
1732809,379,104
1732819,340,104
1732828,355,104
1732840,354,104
1732845,327,104
1732860,360,104
1732867,331,104
1732878,326,104
1732892,374,104
1732902,536,105
1732911,659,105
1732922,656,105
1732931,256,105
1732931,302,105
1732945,326,105
1732962,336,105
1732970,337,105
1732979,308,105
1732995,342,105
1733004,316,105
1733012,316,105
1733025,336,105
1733031,304,105
1733045,336,105
1733045,329,105
1733062,319,105
1733074,360,105
1733086,333,105
1733095,358,105
1733107,372,105
1733117,350,105
1733127,392,105
1733138,375,105
1733145,381,105
1733145,415,105
1733169,390,105
1733179,429,105
1733189,432,105
1733196,424,105
1733210,460,105
1733218,414,105
1733227,400,105
1733232,377,105
1733243,316,105
1733260,326,105
1733271,287,105
1733281,274,105
1733288,297,105
1733288,261,105
1733305,292,105
1733322,293,105
1733332,276,105
1733343,316,105
1733353,288,105
1733364,300,105
1733370,311,105
1733384,274,105
1733395,307,105
1733404,287,105
1733415,278,105
1733425,302,105
1733435,267,105
1733446,294,105
1733454,290,105
1733467,272,105
1733477,311,105
1733487,282,105
1733497,293,105
1733504,306,105
1733518,271,105
1733528,303,105
1733537,285,105
1733549,277,105
1733554,304,105
1733554,267,105
1733579,292,105
1733588,291,105
1733588,267,105
1733610,305,105
1733620,276,105
1733630,285,105
1733638,305,105
1733651,272,105
1733654,308,105
1733672,291,105
1733682,282,105
1733688,313,105
1733703,276,105
1733703,299,105
1733721,299,105
1733733,275,105
1733744,318,105
1733754,295,105
1733765,299,105
1733771,317,105
1733785,285,105
1733794,320,105
1733804,304,105
1733804,291,105
1733821,324,105
1733836,287,105
1733847,310,105
1733854,314,105
1733867,289,105
1733876,325,105
1733887,298,105
1733889,304,105
1733905,327,105
1733918,293,105
1733929,326,105
1733937,314,105
1733948,300,105
1733959,336,105
1733970,310,105
1733980,333,105
1733987,337,105
1734001,307,105
1734004,341,105
1734021,311,105
1734031,311,105
1734037,334,105
1734037,297,105
1734054,325,105
1734071,316,105
1734082,296,105
1734092,326,105
1734103,397,105
1734113,655,106
1734121,658,106
1734132,398,106
1734137,238,106
1734154,301,106
1734165,302,106
1734171,315,106
1734171,278,106
1734195,309,106
1734204,305,106
1734215,288,106
1734222,322,106
1734236,292,106
1734246,311,106
1734254,327,106
1734267,301,106
1734277,341,106
1734287,322,106
1734298,322,106
1734304,351,106
1734319,322,106
1734329,360,106
1734338,364,106
1734338,349,106
1734358,388,106
1734369,368,106
1734380,394,106
1734388,418,106
1734401,393,106
1734411,431,106
1734421,410,106
1734431,388,106
1734437,389,106
1734452,324,106
1734461,324,106
1734471,303,106
1734482,268,106
1734487,299,106
1734503,272,106
1734514,286,106
1734522,305,106
1734535,274,106
1734537,307,106
1734554,289,106
1734565,275,106
1734571,302,106
1734585,261,106
1734587,285,106
1734604,283,106
1734616,258,106
1734627,297,106
1734636,269,106
1734647,280,106
1734654,299,106
1734668,264,106
1734677,297,106
1734687,281,106
1734698,272,106
1734704,301,106
1734719,263,106
1734729,286,106
1734738,288,106
1734750,265,106
1734759,300,106
1734771,274,106
1734780,282,106
1734789,305,106
1734789,272,106
1734805,306,106
1734821,293,106
1734832,280,106
1734838,312,106
1734838,275,106
1734855,294,106
1734871,300,106
1734884,274,106
1734893,310,106
1734904,283,106
1734914,289,106
1734921,312,106
1734934,283,106
1734945,317,106
1734954,307,106
1734965,294,106
1734975,329,106
1734986,296,106
1734996,314,106
1735004,319,106
1735004,289,106
1735021,324,106
1735037,303,106
1735048,302,106
1735055,326,106
1735068,293,106
1735078,325,106
1735087,316,106
1735098,300,106
1735104,332,106
1735104,301,106
1735129,322,106
1735138,332,106
1735150,304,106
1735160,337,106
1735171,317,106
1735181,328,106
1735187,354,106
1735202,315,106
1735211,340,106
1735221,327,106
1735232,312,106
1735237,343,106
1735253,311,106
1735255,326,106
1735271,338,106
1735283,303,106
1735293,324,106
1735304,365,106
1735314,609,102
1735321,659,102
1735334,523,102
1735345,213,102
1735354,300,102
1735365,312,102
1735376,342,102
1735376,316,102
1735396,328,102
1735405,343,102
1735413,313,102
1735427,345,102
1735437,327,102
1735438,327,102
1735454,359,102
1735464,330,102
1735479,363,102
1735487,371,102
1735499,359,102
1735504,403,102
1735519,383,102
1735527,402,102
1735537,423,102
1735537,398,102
1735555,435,102
1735571,424,102
1735571,427,102
1735588,471,102
1735588,447,102
1735612,482,102
1735621,486,102
1735621,456,102
1735637,466,102
1735653,408,102
1735663,389,102
1735671,380,102
1735683,335,102
1735687,364,102
1735704,350,102
1735714,343,102
1735721,376,102
1735735,345,102
1735745,371,102
1735754,373,102
1735766,347,102
1735776,382,102
1735787,354,102
1735797,358,102
1735804,376,102
1735817,340,102
1735828,372,102
1735837,359,102
1735838,349,102
1735855,383,102
1735869,356,102
1735878,384,102
1735888,392,102
1735899,366,102
1735905,398,102
1735920,365,102
1735921,364,102
1735938,374,102
1735938,328,102
1735955,355,102
1735971,338,102
1735971,325,102
1735988,357,102
1735988,326,102
1736013,348,102
1736021,357,102
1736033,331,102
1736043,366,102
1736053,340,102
1736054,337,102
1736071,357,102
1736077,318,102
1736088,345,102
1736104,334,102
1736115,319,102
1736125,354,102
1736135,321,102
1736145,339,102
1736155,348,102
1736166,318,102
1736177,352,102
1736187,328,102
1736197,322,102
1736204,346,102
1736217,320,102
1736228,357,102
1736237,343,102
1736249,324,102
1736255,351,102
1736255,313,102
1736271,324,102
1736290,332,102
1736300,304,102
1736310,333,102
1736321,307,102
1736330,304,102
1736338,317,102
1736342,356,102
1736361,629,105
1736371,659,105
1736371,468,105
1736388,220,105
1736403,274,105
1736413,306,105
1736421,310,105
1736433,277,105
1736443,312,105
1736453,290,105
1736464,284,105
1736474,309,105
1736485,272,105
1736494,302,105
1736504,301,105
1736516,285,105
1736522,329,105
1736536,310,105
1736546,327,105
1736554,347,105
1736567,322,105
1736577,361,105
1736587,350,105
1736598,349,105
1736604,383,105
1736618,354,105
1736628,391,105
1736637,398,105
1736648,385,105
1736654,428,105
1736669,397,105
1736679,394,105
1736688,383,105
1736700,317,105
1736706,320,105
1736721,281,105
1736730,258,105
1736738,281,105
1736752,244,105
1736755,272,105
1736772,280,105
1736772,260,105
1736787,302,105
1736804,277,105
1736806,289,105
1736820,309,105
1736833,273,105
1736844,303,105
1736854,287,105
1736864,273,105
1736871,302,105
1736885,265,105
1736895,288,105
1736904,291,105
1736916,267,105
1736922,306,105
1736936,282,105
1736938,290,105
1736954,313,105
1736967,278,105
1736977,309,105
1736987,297,105
1736998,282,105
1737004,312,105
1737018,276,105
1737027,298,105
1737037,303,105
1737049,279,105
1737055,318,105
1737055,294,105
1737080,299,105
1737088,322,105
1737100,288,105
1737111,316,105
1737121,305,105
1737132,289,105
1737137,319,105
1737152,285,105
1737155,305,105
1737172,315,105
1737181,290,105
1737187,330,105
1737203,308,105
1737212,310,105
1737221,333,105
1737234,296,105
1737238,325,105
1737254,315,105
1737265,299,105
1737270,333,105
1737277,303,105
1737287,323,105
1737303,333,105
1737313,304,105
1737318,340,105
1737335,316,105
1737347,312,105
1737349,338,105
1737367,301,105
1737378,332,105
1737388,326,105
1737398,310,105
1737400,348,105
1737416,316,105
1737426,331,105
1737439,345,105
1737450,323,105
1737460,360,105
1737466,334,105
1737480,326,105
1737491,345,105
1737500,303,105
1737511,328,105
1737521,323,105
1737531,303,105
1737542,334,105
1737550,297,105
1737550,304,105
1737573,308,105
1737582,383,105
1737593,657,90
1737600,659,90
1737614,451,90
1737624,286,90
1737633,337,90
1737645,365,90
1737650,341,90
1737665,309,90
1737674,336,90
1737683,298,90
1737696,310,90
1737701,329,90
1737716,306,90
1737726,357,90
1737735,353,90
1737735,356,90
1737757,390,90
1737767,352,90
1737778,376,90
1737783,374,90
1737799,353,90
1737809,394,90
1737816,367,90
1737829,384,90
1737835,414,90
1737850,392,90
1737860,439,90
1737870,431,90
1737881,426,90
1737891,456,90
1737900,413,100
1737911,422,100
1737922,396,100
1737932,344,100
1737942,358,100
1737949,313,100
1737962,309,100
1737973,323,100
1737983,288,100
1737994,320,100
1737999,305,100
1738014,296,100
1738024,330,100
1738033,294,100
1738036,315,100
1738055,316,100
1738065,289,100
1738076,324,100
1738083,296,100
1738096,304,100
1738100,325,100
1738116,289,100
1738127,322,100
1738136,310,100
1738136,298,100
1738150,331,100
1738167,294,100
1738178,314,100
1738184,315,100
1738184,282,100
1738210,317,100
1738216,290,100
1738230,293,100
1738236,315,100
1738249,279,100
1738261,313,100
1738267,304,100
1738281,289,100
1738291,323,100
1738300,289,100
1738312,309,100
1738322,315,100
1738333,287,100
1738342,326,100
1738350,299,100
1738363,301,100
1738373,323,100
1738383,283,100
1738394,315,100
1738400,307,100
1738414,294,100
1738424,333,100
1738434,302,100
1738436,322,100
1738456,332,100
1738465,302,100
1738475,338,100
1738484,312,100
1738496,312,100
1738507,336,100
1738516,299,100
1738527,330,100
1738536,324,100
1738548,307,100
1738550,342,100
1738567,310,100
1738578,326,100
1738583,338,100
1738600,306,100
1738610,341,100
1738616,320,100
1738629,317,100
1738636,340,100
1738650,305,100
1738661,345,100
1738667,344,100
1738681,323,100
1738682,354,100
1738701,317,100
1738711,322,100
1738722,333,100
1738733,300,100
1738743,334,100
1738750,314,100
1738750,313,100
1738774,342,100
1738783,294,100
1738794,369,100
1738799,581,91
1738815,658,91
1738826,596,91
1738833,202,91
1738845,284,91
1738850,330,91
1738866,285,91
1738867,318,91
1738883,298,91
1738898,293,91
1738900,322,91
1738916,285,91
1738927,308,91
1738938,303,91
1738948,284,91
1738959,328,91
1738967,305,91
1738980,318,91
1738990,339,91
1739000,310,91
1739010,344,91
1739017,326,91
1739017,316,91
1739037,347,91
1739050,319,91
1739050,356,91
1739067,372,91
1739075,366,91
1739092,417,91
1739100,397,91
1739100,405,96
1739123,409,96
1739133,346,96
1739143,346,96
1739150,302,96
1739163,268,96
1739174,286,96
1739183,249,96
1739195,275,96
1739200,283,96
1739216,261,96
1739225,302,96
1739233,277,96
1739246,285,96
1739250,306,96
1739266,273,96
1739277,304,96
1739283,289,96
1739297,280,96
1739307,308,96
1739317,273,96
1739320,294,96
1739337,301,96
1739349,277,96
1739358,315,96
1739367,291,96
1739374,297,96
1739383,323,96
1739400,288,96
1739400,319,96
1739416,305,96
1739431,288,96
1739437,315,96
1739450,279,96
1739450,298,96
1739468,304,96
1739482,280,96
1739493,322,96
1739500,301,96
1739513,308,96
1739523,337,96
1739533,306,96
1739543,338,96
1739550,322,96
1739564,302,96
1739575,331,96
1739583,294,96
1739595,309,96
1739600,322,96
1739615,299,96
1739617,338,96
1739633,319,96
1739647,322,96
1739650,344,96
1739666,308,96
1739676,337,96
1739687,326,96
1739697,309,96
1739709,344,96
1739716,312,96
1739728,332,96
1739738,342,96
1739749,320,96
1739751,371,96
1739767,356,96
1739780,352,96
1739784,377,96
1739800,336,96
1739811,359,96
1739816,352,96
1739824,335,96
1739838,371,96
1739849,341,96
1739849,356,96
1739867,366,96
1739883,333,96
1739884,482,89
1739900,658,89
1739913,659,89
1739924,479,89
1739933,230,89
1739944,357,89
1739949,364,89
1739965,339,89
1739975,373,89
1739983,341,89
1739996,354,89
1740000,365,89
1740016,334,89
1740020,372,89
1740034,356,89
1740039,357,89
1740050,392,89
1740067,364,89
1740076,400,89
1740083,400,89
1740098,383,89
1740099,420,89
1740117,387,89
1740129,400,89
1740139,413,89
1740149,383,89
1740160,429,89
1740169,423,89
1740180,431,89
1740190,472,98
1740199,444,98
1740211,467,98
1740217,448,98
1740217,394,98
1740239,394,98
1740250,336,98
1740250,323,98
1740267,327,98
1740283,290,98
1740293,325,98
1740299,312,98
1740314,307,98
1740316,339,98
1740333,305,98
1740344,328,98
1740354,325,98
1740364,299,98
1740376,330,98
1740383,301,98
1740396,312,98
1740405,332,98
1740416,299,98
1740427,333,98
1740432,319,98
1740446,311,98
1740457,345,98
1740466,313,98
1740478,337,98
1740488,338,98
1740499,313,98
1740509,342,98
1740516,308,98
1740529,309,98
1740539,321,98
1740549,285,98
1740561,314,98
1740569,300,98
1740580,292,98
1740590,326,98
1740599,296,98
1740612,322,98
1740617,329,98
1740632,305,98
1740642,340,98
1740649,312,98
