Timestamp,ECGValue,BPM
2022576,306,98
2022592,279,98
2022602,318,98
2022609,284,98
2022618,293,98
2022633,311,98
2022643,275,98
2022653,314,98
2022659,298,98
2022674,294,98
2022684,330,98
2022693,296,98
2022693,326,98
2022709,330,98
2022725,306,98
2022735,349,98
2022742,321,98
2022756,330,98
2022766,353,98
2022776,318,98
2022776,354,98
2022792,336,98
2022807,327,98
2022818,362,98
2022826,328,98
2022838,355,98
2022848,361,98
2022858,332,98
2022869,375,98
2022876,349,98
2022890,355,98
2022899,376,98
2022910,349,98
2022914,394,98
2022926,377,98
2022941,366,98
2022943,395,98
2022959,352,98
2022972,375,98
2022982,381,98
2022992,352,98
2023002,390,98
2023009,360,98
2023023,364,98
2023033,379,98
2023043,440,102
2023054,658,102
2023062,660,102
2023075,538,102
2023076,284,102
2023092,335,102
2023106,376,102
2023116,372,102
2023126,341,102
2023135,381,102
2023142,353,102
2023156,355,102
2023166,381,102
2023175,345,102
2023187,378,102
2023194,367,102
2023208,357,102
2023217,399,102
2023225,370,102
2023239,398,102
2023243,408,102
2023259,381,102
2023263,422,102
2023276,394,102
2023290,397,102
2023292,427,102
2023309,400,102
2023321,448,102
2023326,454,102
2023341,448,102
2023351,492,102
2023359,451,102
2023371,451,102
2023382,420,102
2023392,349,102
2023404,357,102
2023409,310,102
2023424,299,102
2023434,323,102
2023442,289,102
2023442,328,102
2023459,321,102
2023468,301,102
2023476,331,102
2023492,287,102
2023505,301,102
2023516,308,102
2023525,276,102
2023536,318,102
2023542,299,102
2023542,304,102
2023568,335,102
2023576,296,102
2023587,325,102
2023593,314,102
2023608,292,102
2023619,331,102
2023625,295,102
2023639,312,102
2023649,326,102
2023659,292,102
2023659,327,102
2023676,300,102
2023690,294,102
2023693,319,102
2023709,278,102
2023721,310,102
2023731,302,102
2023741,284,102
2023743,327,102
2023759,296,102
2023773,314,102
2023776,329,102
2023792,295,102
2023803,330,102
2023809,303,102
2023823,296,102
2023834,326,102
2023842,286,102
2023854,317,102
2023859,312,102
2023876,289,102
2023876,327,102
2023893,293,102
2023893,310,102
2023909,323,102
2023925,289,102
2023937,329,102
2023943,307,102
2023943,300,102
2023967,328,102
2023975,294,102
2023988,334,102
2023993,331,102
2024009,307,102
2024009,346,102
2024026,305,102
2024036,314,102
2024049,327,102
2024059,291,102
2024070,326,102
2024076,301,102
2024090,295,102
2024100,316,102
2024108,299,102
2024120,507,106
2024131,659,106
2024142,644,106
2024143,267,106
2024160,246,106
2024173,318,106
2024175,323,106
2024192,281,106
2024203,318,106
2024209,296,106
2024224,286,106
2024234,316,106
2024242,280,106
2024254,310,106
2024265,315,106
2024276,297,106
2024286,344,106
2024292,318,106
2024305,334,106
2024316,357,106
2024325,327,106
2024337,363,106
2024343,346,106
2024343,339,106
2024368,382,106
2024376,355,106
2024376,399,106
2024393,414,106
2024409,405,106
2024418,453,106
2024426,420,106
2024439,419,106
2024450,409,106
2024459,337,106
2024471,341,106
2024476,300,106
2024491,277,106
2024501,306,106
2024509,269,106
2024522,299,106
2024532,305,106
2024542,279,106
2024552,319,106
2024560,287,106
2024560,295,106
2024583,314,106
2024592,275,106
2024604,313,106
2024610,295,106
2024617,284,106
2024625,322,106
2024643,284,106
2024646,307,106
2024659,308,106
2024676,279,106
2024686,316,106
2024693,287,106
2024706,295,106
2024717,318,106
2024726,283,106
2024737,320,106
2024743,307,106
2024743,293,106
2024759,327,106
2024775,289,106
2024788,310,106
2024799,313,106
2024809,283,106
2024819,325,106
2024825,296,106
2024840,305,106
2024842,328,106
2024859,291,106
2024871,328,106
2024880,313,106
2024891,300,106
2024902,336,106
2024909,299,106
2024922,321,106
2024932,326,106
2024942,296,106
2024953,335,106
2024959,307,106
2024973,311,106
2024984,335,106
2024992,296,106
2025004,331,106
2025014,316,106
2025024,303,106
2025035,340,106
2025042,302,106
2025055,325,106
2025065,334,106
2025076,303,106
2025086,345,106
2025092,315,106
2025106,317,106
2025109,340,106
2025125,299,106
2025138,335,106
2025148,324,106
2025158,309,106
2025169,349,106
2025176,314,106
2025190,338,106
2025200,348,106
2025209,318,106
2025219,355,106
2025225,328,106
2025240,338,106
2025251,365,106
2025259,324,106
2025271,353,106
2025282,340,106
2025292,321,106
2025292,359,106
2025309,322,106
2025322,342,106
2025326,349,106
2025342,316,106
2025353,352,106
2025359,316,106
2025374,400,106
2025383,656,102
2025392,658,102
2025392,524,102
2025415,242,102
2025425,309,102
2025427,360,102
2025442,308,102
2025456,326,102
2025460,334,102
2025476,301,102
2025487,341,102
2025492,317,102
2025507,318,102
2025510,349,102
2025526,315,102
2025538,354,102
2025548,349,102
2025559,333,102
2025569,376,102
2025575,342,102
2025589,359,102
2025600,375,102
2025609,347,102
2025620,394,102
2025625,380,102
2025640,393,102
2025651,436,102
2025659,407,102
2025671,443,102
2025682,437,102
2025692,412,102
2025703,437,102
2025709,376,102
2025723,365,102
2025730,353,102
2025743,302,102
2025754,332,102
2025764,302,102
2025764,296,102
2025776,322,102
2025793,277,102
2025805,302,102
2025809,293,102
2025826,271,102
2025836,309,102
2025842,274,102
2025856,293,102
2025867,308,102
2025875,274,102
2025887,313,102
2025892,292,102
2025907,285,102
2025913,314,102
2025926,270,102
2025937,299,102
2025949,294,102
2025959,272,102
2025969,311,102
2025976,277,102
2025990,294,102
2026000,304,102
2026009,265,102
2026021,300,102
2026031,273,102
2026041,270,102
2026051,307,102
2026059,274,102
2026071,316,102
2026078,320,102
2026092,302,102
2026102,342,102
2026110,303,102
2026123,312,102
2026126,322,102
2026143,281,102
2026143,315,102
2026159,291,102
2026174,285,102
2026185,319,102
2026193,283,102
2026193,317,102
2026209,319,102
2026226,298,102
2026227,338,102
2026243,299,102
2026243,309,102
2026267,323,102
2026276,284,102
2026287,321,102
2026293,300,102
2026293,294,102
2026318,329,102
2026326,291,102
2026338,316,102
2026349,314,102
2026359,288,102
2026369,324,102
2026376,288,102
2026390,298,102
2026400,318,102
2026409,282,102
2026421,324,102
2026427,308,102
2026442,300,102
2026452,334,102
2026459,295,102
2026473,317,102
2026482,311,102
2026492,291,102
2026503,340,102
2026512,310,102
2026512,312,102
2026534,327,102
2026542,287,102
2026554,322,102
2026560,303,102
2026567,293,102
2026585,324,102
2026593,288,102
2026593,315,102
2026616,305,102
2026625,293,102
2026636,508,101
2026642,658,101
2026657,647,101
2026668,256,101
2026676,228,101
2026688,326,101
2026698,302,101
2026709,287,101
2026711,323,101
2026726,280,101
2026739,304,101
2026749,309,101
2026759,284,101
2026769,332,101
2026775,307,101
2026790,321,101
2026801,351,101
2026808,325,101
2026822,366,101
2026826,354,101
2026841,347,101
2026852,384,101
2026858,351,101
2026872,379,101
2026876,392,101
2026892,375,101
2026904,426,101
2026909,412,101
2026919,432,101
2026933,460,101
2026942,425,101
2026955,448,101
2026965,410,101
2026975,368,101
2026986,374,101
2026992,318,101
2026992,325,101
2027016,321,101
2027025,292,101
2027025,330,101
2027042,300,101
2027058,304,101
2027061,327,101
2027076,289,101
2027087,325,101
2027098,314,101
2027109,308,101
2027120,345,101
2027125,311,101
2027139,333,101
2027149,340,101
2027159,312,101
2027170,353,101
2027177,325,101
2027191,330,101
2027200,355,101
2027209,318,101
2027221,355,101
2027232,343,101
2027242,326,101
2027252,360,101
2027262,325,101
2027273,346,101
2027280,353,101
2027292,325,101
2027304,366,101
2027314,340,101
2027324,342,101
2027335,367,101
2027342,333,101
2027355,366,101
2027363,356,101
2027375,342,101
2027386,377,101
2027393,340,101
2027406,360,101
2027416,367,101
2027425,337,101
2027437,380,101
2027442,357,101
2027458,363,101
2027459,389,101
2027476,351,101
2027476,385,101
2027493,382,101
2027509,374,101
2027519,406,107
2027526,365,107
2027540,379,107
2027550,379,107
2027559,343,107
2027571,379,107
2027581,351,107
2027592,348,107
2027602,372,107
2027609,332,107
2027621,352,107
2027632,394,107
2027643,611,107
2027653,659,107
2027659,617,107
2027673,244,107
2027683,323,107
2027694,326,107
2027704,353,107
2027714,323,107
2027724,319,107
2027726,344,107
2027743,305,107
2027756,338,107
2027766,330,107
2027776,314,107
2027776,353,107
2027792,319,107
2027807,342,107
2027817,361,107
2027826,335,107
2027837,378,107
2027848,355,107
2027858,357,107
2027868,386,107
2027875,350,107
2027888,391,107
2027898,394,107
2027908,388,107
2027920,438,106
2027926,412,106
2027940,433,106
2027943,440,106
2027959,384,106
2027970,387,106
2027981,322,106
2027992,288,106
2028002,295,106
2028009,245,106
2028022,277,106
2028033,277,106
2028042,261,106
2028053,305,106
2028063,272,106
2028074,286,106
2028084,295,106
2028092,258,106
2028105,294,106
2028110,268,106
2028125,266,106
2028135,297,106
2028142,258,106
2028156,291,106
2028167,287,106
2028176,265,106
2028187,304,106
2028193,272,106
2028193,286,106
2028217,298,106
2028225,265,106
2028225,305,106
2028242,284,106
2028259,279,106
2028269,308,106
2028276,263,106
2028289,290,106
2028293,285,106
2028309,261,106
2028320,304,106
2028325,272,106
2028340,290,106
2028351,311,106
2028359,280,106
2028371,321,106
2028376,301,106
2028392,291,106
2028392,319,106
2028409,276,106
2028418,304,106
2028427,304,106
2028442,282,106
2028442,325,106
2028459,292,106
2028468,305,106
2028485,321,106
2028492,283,106
2028492,316,106
2028515,285,106
2028525,272,106
2028527,300,106
2028543,254,106
2028556,284,106
2028566,288,106
2028576,274,106
2028576,329,106
2028592,312,106
2028608,339,106
2028618,368,106
2028626,339,106
2028626,376,106
2028643,350,106
2028659,334,106
2028669,356,106
2028676,306,106
2028690,332,106
2028699,327,106
2028709,306,106
2028721,363,106
2028731,344,106
2028740,349,106
2028752,370,106
2028759,330,106
2028772,360,106
2028776,339,106
2028792,325,106
2028803,355,106
2028812,314,106
2028822,340,106
2028833,334,106
2028843,306,106
2028853,479,103
2028859,658,103
2028874,658,103
2028885,395,103
2028892,228,103
2028905,355,103
2028915,335,103
2028926,314,103
2028936,344,103
2028942,300,103
2028956,321,103
2028967,318,103
2028976,288,103
2028988,330,103
2028997,304,103
2029008,319,103
2029018,349,103
2029025,320,103
2029038,361,103
2029043,347,103
2029059,335,103
2029070,368,103
2029076,332,103
2029076,364,103
2029093,375,103
2029109,358,103
2029121,415,103
2029126,401,103
2029141,423,103
2029143,453,103
2029159,415,103
2029172,442,103
2029182,410,103
2029192,367,103
2029203,370,103
2029209,307,103
2029223,314,103
2029234,308,103
2029242,274,103
2029254,314,103
2029264,285,103
2029275,290,103
2029286,311,103
2029292,273,103
2029305,311,103
2029316,298,103
2029325,285,103
2029336,323,103
2029343,283,103
2029357,304,103
2029368,309,103
2029376,280,103
2029388,321,103
2029393,289,103
2029393,294,103
2029419,318,103
2029426,280,103
2029439,315,103
2029449,302,103
2029459,288,103
2029469,325,103
2029476,283,103
2029490,304,103
2029501,313,103
2029509,283,103
2029521,324,103
2029526,295,103
2029542,304,103
2029552,329,103
2029559,292,103
2029572,328,103
2029576,317,103
2029592,300,103
2029604,335,103
2029609,297,103
2029618,318,103
2029626,325,103
2029643,294,103
2029655,336,103
2029659,310,103
2029675,315,103
2029685,342,103
2029692,306,103
2029705,342,103
2029716,331,103
2029725,312,103
2029737,348,103
2029747,309,103
2029757,328,103
2029767,334,103
2029775,301,103
2029787,343,103
2029798,318,103
2029808,324,103
2029819,351,103
2029826,314,103
2029826,347,103
2029850,337,103
2029859,319,103
2029870,356,103
2029876,317,103
2029876,335,103
2029893,344,103
2029909,310,103
2029921,348,103
2029932,320,103
2029942,321,103
2029953,346,103
2029959,309,103
2029973,357,103
2029976,355,103
2029994,330,103
2029994,369,103
2030009,328,103
2030024,338,103
2030034,346,103
2030044,310,103
2030055,347,103
2030065,322,103
2030075,322,103
2030085,343,103
2030092,304,103
2030106,456,100
2030116,658,100
2030126,658,100
2030126,424,100
2030143,223,100
2030158,330,100
2030168,337,100
2030176,290,100
2030189,329,100
2030199,298,100
2030209,293,100
2030218,320,100
2030226,280,100
2030226,312,100
2030243,307,100
2030260,291,100
2030269,337,100
2030276,305,100
2030292,325,100
2030301,339,100
2030309,305,100
2030322,343,100
2030331,321,100
2030342,320,100
2030353,353,100
2030359,322,100
2030372,367,100
2030383,374,100
2030392,369,100
2030404,417,100
2030412,389,100
2030424,403,100
2030435,400,100
2030444,338,100
2030454,345,100
2030460,293,100
2030476,268,100
2030486,286,100
2030493,241,100
2030507,272,100
2030510,269,100
2030526,253,100
2030526,300,100
2030543,272,100
2030558,291,100
2030568,312,100
2030576,280,100
2030576,317,100
2030599,293,100
2030609,282,100
2030618,306,100
2030627,263,100
2030627,298,100
2030643,295,100
2030660,279,100
2030671,324,100
2030675,296,100
2030691,313,100
2030702,331,100
2030709,294,100
2030722,329,100
2030732,296,100
2030742,285,100
2030753,310,100
2030758,270,100
2030774,300,100
2030784,301,100
2030792,285,100
2030804,331,100
2030814,300,100
2030825,318,100
2030835,336,100
2030844,304,100
2030844,343,100
2030859,322,100
2030876,318,100
2030887,349,100
2030892,311,100
2030892,340,100
2030910,340,100
2030926,317,100
2030938,360,100
2030944,330,100
2030959,344,100
2030968,363,100
2030976,333,100
2030976,372,100
2030992,351,100
2031010,341,100
2031020,370,100
2031027,327,100
2031027,351,100
2031050,351,100
2031060,328,100
2031071,373,100
2031082,347,100
2031091,362,100
2031101,378,100
2031108,344,100
2031122,384,100
2031133,375,100
2031142,359,100
2031154,381,100
2031162,337,100
2031174,357,100
2031184,356,100
2031192,336,100
2031205,376,100
2031209,345,100
2031225,354,100
2031235,372,100
2031244,322,100
2031256,424,102
2031267,649,102
2031275,659,102
2031287,607,102
2031292,229,102
2031307,334,102
2031317,363,102
2031325,325,102
2031337,361,102
2031349,329,102
2031358,337,102
2031368,353,102
2031376,317,102
2031389,357,102
2031394,346,102
2031409,341,102
2031420,379,102
2031426,348,102
2031441,380,102
2031445,383,102
2031459,357,102
2031471,397,102
2031475,364,102
2031492,373,102
2031502,398,102
2031509,370,102
2031523,415,102
2031526,414,102
2031543,418,102
2031554,465,102
2031562,432,102
2031562,456,102
2031584,440,102
2031593,380,102
2031602,381,102
2031610,320,102
2031625,307,102
2031636,315,102
2031644,275,102
2031656,310,102
2031667,296,102
2031676,284,102
2031687,319,102
2031697,276,102
2031707,294,102
2031717,293,102
2031725,266,102
2031739,307,102
2031749,278,102
2031759,286,102
2031769,311,102
2031776,278,102
2031776,317,102
2031800,301,102
2031809,289,102
2031821,328,102
2031831,293,102
2031842,318,102
2031851,322,102
2031858,293,102
2031872,329,102
2031876,294,102
2031892,293,102
2031903,308,102
2031909,267,102
2031923,304,102
2031933,294,102
2031943,284,102
2031954,324,102
2031959,292,102
2031974,317,102
2031984,324,102
2031992,295,102
2032005,332,102
2032015,301,102
2032026,301,102
2032037,324,102
2032044,286,102
2032057,322,102
2032067,314,102
2032076,300,102
2032088,336,102
2032098,296,102
2032108,316,102
2032119,324,102
2032127,294,102
2032138,334,102
2032149,310,102
2032159,317,102
2032159,342,102
2032176,305,102
2032190,337,102
2032192,324,102
2032209,308,102
2032222,342,102
2032231,308,102
2032241,331,102
2032251,343,102
2032259,314,102
2032272,359,102
2032276,347,102
2032292,347,102
2032292,363,102
2032309,322,102
2032318,345,102
2032334,330,102
2032343,313,102
2032355,349,102
2032359,313,102
2032375,333,102
2032385,343,102
2032392,302,102
2032405,377,102
2032413,556,103
2032426,659,103
2032426,650,103
2032445,224,103
2032445,297,103
2032467,335,103
2032477,306,103
2032477,342,103
2032498,307,103
2032508,324,103
2032518,333,103
2032526,299,103
2032539,331,103
2032550,307,103
2032559,309,103
2032570,340,103
2032580,312,103
2032591,357,103
2032600,365,103
2032609,367,103
2032621,421,103
2032632,397,103
2032641,421,103
2032652,433,103
2032659,395,103
2032672,431,103
2032678,402,103
2032693,406,103
2032703,443,103
2032714,419,103
2032724,462,103
2032734,454,103
2032742,412,103
2032754,415,103
2032764,344,103
2032775,326,103
2032785,308,103
2032792,256,103
2032807,283,103
2032816,255,103
2032825,255,103
2032837,286,103
2032845,253,103
2032858,289,103
2032868,288,103
2032876,268,103
2032889,304,103
2032898,268,103
2032909,283,103
2032919,297,103
2032926,261,103
2032939,298,103
2032945,271,103
2032959,267,103
2032971,294,103
2032976,254,103
2032991,284,103
2033001,282,103
2033010,261,103
2033016,302,103
2033026,272,103
2033043,288,103
2033052,301,103
2033059,259,103
2033073,291,103
2033083,265,103
2033093,255,103
2033104,281,103
2033109,245,103
2033125,279,103
2033127,284,103
2033142,269,103
2033155,310,103
2033162,280,103
2033175,295,103
2033175,307,103
2033192,271,103
2033206,305,103
2033217,279,103
2033226,272,103
2033226,299,103
2033246,261,103
2033246,291,103
2033268,289,103
2033276,269,103
2033288,310,103
2033299,276,103
2033309,290,103
2033320,306,103
2033325,273,103
2033341,310,103
2033350,288,103
2033359,282,103
2033370,314,103
2033381,280,103
2033391,309,103
2033401,304,103
2033408,280,103
2033422,315,103
2033432,280,103
2033442,292,103
2033452,306,103
2033458,273,103
2033474,310,103
2033484,293,103
2033492,288,103
2033504,325,103
2033512,303,103
2033512,326,103
2033526,317,103
2033542,290,103
2033556,321,103
2033566,281,103
2033576,288,103
2033586,302,103
2033592,265,103
2033607,306,103
2033618,292,103
2033626,278,103
2033637,382,103
2033648,593,98
2033658,659,98
2033669,515,98
2033677,169,98
2033689,297,98
2033693,286,98
2033709,288,98
2033719,303,98
2033726,268,98
2033740,308,98
2033751,294,98
2033758,292,98
2033771,330,98
2033781,298,98
2033792,327,98
2033792,333,98
2033809,315,98
2033822,358,98
2033827,331,98
2033842,347,98
2033854,376,98
2033860,347,98
2033874,392,98
2033876,387,98
2033893,390,98
2033893,434,98
2033915,410,98
2033925,451,98
2033935,464,98
2033943,444,98
2033956,484,99
2033966,442,99
2033976,426,99
2033987,413,99
2033992,345,99
2034007,355,99
2034016,325,99
2034026,306,99
2034037,337,99
2034046,301,99
2034059,331,99
2034069,336,99
2034075,312,99
2034089,352,99
2034093,322,99
2034109,334,99
2034117,354,99
2034126,319,99
2034141,355,99
2034151,337,99
2034159,326,99
2034171,363,99
2034176,330,99
2034192,359,99
2034202,365,99
2034210,345,99
2034219,388,99
2034225,358,99
2034243,358,99
2034254,373,99
2034259,329,99
2034274,361,99
2034277,346,99
2034292,338,99
2034304,376,99
2034315,345,99
2034325,371,99
2034335,378,99
2034342,350,99
2034356,386,99
2034367,353,99
2034376,355,99
2034386,375,99
2034393,336,99
2034393,371,99
2034418,359,99
2034426,349,99
2034439,388,99
2034447,355,99
2034459,382,99
2034469,387,99
2034477,356,99
2034489,399,99
2034500,378,99
2034509,379,99
2034521,388,99
2034529,343,99
2034529,370,99
2034547,358,99
2034560,345,99
2034570,383,99
2034582,344,99
2034592,365,99
2034602,368,99
2034609,328,99
2034623,370,99
2034634,508,103
2034643,659,103
2034647,659,103
2034659,302,103
2034675,279,103
2034685,341,103
2034693,327,103
2034705,361,103
2034708,323,103
2034726,339,103
2034737,342,103
2034742,310,103
2034757,348,103
2034767,320,103
2034777,324,103
2034787,350,103
2034793,319,103
2034808,362,103
2034818,356,103
2034825,347,103
2034839,387,103
2034849,353,103
2034859,378,103
2034870,386,103
2034876,363,103
2034890,413,103
2034900,396,103
2034909,416,103
2034921,455,103
2034931,428,103
2034941,464,103
2034949,441,103
2034960,392,103
2034973,387,103
2034976,312,103
2034992,304,103
2034992,295,103
2035009,257,103
2035024,294,103
2035026,268,103
2035041,273,103
2035055,304,103
2035065,270,103
2035074,306,103
2035076,295,103
2035092,275,103
2035106,312,103
2035109,277,103
2035126,298,103
2035136,311,103
2035142,280,103
2035157,321,103
2035167,297,103
2035175,299,103
2035187,326,103
2035198,290,103
2035209,324,103
2035218,315,103
2035226,299,103
2035226,335,103
2035248,299,103
2035259,317,103
2035270,323,103
2035275,286,103
2035290,322,103
2035293,294,103
2035309,292,103
2035316,318,103
2035327,281,103
2035342,314,103
2035353,309,103
2035360,291,103
2035373,330,103
2035376,293,103
2035392,309,103
2035403,320,103
2035409,287,103
2035416,327,103
2035434,303,103
2035442,298,103
2035454,326,103
2035460,284,103
2035467,311,103
2035485,303,103
2035495,282,103
2035505,321,103
2035508,288,103
2035526,304,103
2035537,317,103
2035546,284,103
2035557,322,103
2035568,297,103
2035577,297,103
2035588,323,103
2035599,284,103
2035609,314,103
2035619,309,103
2035626,287,103
2035640,327,103
2035650,293,103
2035659,305,103
2035670,313,103
2035681,279,103
2035690,324,103
2035701,300,103
2035709,295,103
2035722,338,103
2035726,306,103
2035742,326,103
2035752,322,103
2035760,296,103
2035760,331,103
2035776,297,103
2035793,310,103
2035804,326,103
2035809,291,103
2035824,329,103
2035835,299,103
2035842,304,103
2035855,495,104
2035863,658,104
2035875,656,104
2035886,291,104
2035892,234,104
2035906,337,104
2035916,291,104
2035925,298,104
2035937,312,104
2035947,278,104
2035958,315,104
2035967,293,104
2035976,290,104
2035989,324,104
2035993,290,104
2036009,325,104
2036019,326,104
2036027,307,104
2036040,349,104
2036050,320,104
2036059,339,104
2036071,357,104
2036076,320,104
2036076,366,104
2036093,355,104
2036109,360,104
2036122,406,104
2036126,382,104
2036142,424,104
2036153,431,104
2036159,411,104
2036173,443,104
2036184,392,104
2036192,372,104
2036204,358,104
2036212,296,104
2036212,315,104
2036235,285,104
2036243,273,104
2036249,306,104
2036259,268,104
2036276,299,104
2036286,298,104
2036292,273,104
2036307,312,104
2036316,282,104
2036327,292,104
2036327,309,104
2036342,270,104
2036358,306,104
2036369,288,104
2036379,281,104
2036379,314,104
2036390,275,104
2036406,301,104
2036416,299,104
2036430,270,104
2036434,307,104
2036450,273,104
2036450,280,104
2036467,298,104
2036481,261,104
2036492,299,104
2036500,281,104
2036512,272,104
2036517,307,104
2036532,267,104
2036543,292,104
2036550,294,104
2036564,267,104
2036570,308,104
2036583,275,104
2036594,285,104
2036605,304,104
2036615,266,104
2036625,305,104
2036634,287,104
2036646,278,104
2036656,311,104
2036666,272,104
2036667,292,104
2036683,295,104
2036697,269,104
2036701,310,104
2036717,279,104
2036728,290,104
2036736,313,104
2036747,278,104
2036750,316,104
2036766,303,104
2036774,293,104
2036785,324,104
2036785,286,104
2036810,311,104
2036817,317,104
2036830,291,104
2036834,330,104
2036850,304,104
2036861,314,104
2036866,336,104
2036882,302,104
2036884,339,104
2036900,324,104
2036912,311,104
2036917,346,104
2036932,316,104
2036943,352,104
2036950,348,104
2036963,316,104
2036973,353,104
2036983,322,104
2036995,325,104
2037000,349,104
2037015,315,104
2037025,351,104
2037034,334,104
2037034,312,104
2037056,341,104
2037066,418,103
2037076,658,103
2037083,659,103
2037098,382,103
2037107,248,103
2037117,310,103
2037128,321,103
2037133,336,103
2037149,302,103
2037159,333,103
2037167,314,103
2037178,300,103
2037190,336,103
2037200,302,103
2037210,329,103
2037218,342,103
2037218,322,103
2037234,371,103
2037250,351,103
2037261,361,103
2037268,388,103
2037277,355,103
2037292,393,103
2037300,385,103
2037313,374,103
2037318,417,103
2037333,394,103
2037344,433,103
2037354,456,103
2037364,439,103
2037367,482,103
2037384,450,103
2037384,437,103
2037400,430,103
2037415,357,103
2037426,363,103
2037433,331,103
2037446,304,103
2037457,339,103
2037467,299,103
2037475,318,103
2037483,329,103
2037483,292,103
2037499,334,103
2037517,305,103
2037529,311,103
2037533,331,103
2037548,298,103
2037559,333,103
2037567,324,103
2037571,309,103
2037590,346,103
2037600,314,103
2037611,335,103
2037617,343,103
2037631,313,103
2037633,348,103
2037650,322,103
2037662,323,103
2037671,349,103
2037682,313,103
2037693,344,103
2037700,332,103
2037713,316,103
2037723,346,103
2037733,311,103
2037745,330,103
2037751,336,103
2037751,306,103
2037774,345,103
2037784,318,103
2037784,326,103
2037801,352,103
2037801,314,103
2037826,349,103
2037833,340,103
2037847,321,103
2037851,360,103
2037867,327,103
2037877,344,103
2037884,353,103
2037898,335,103
2037900,385,103
2037918,351,103
2037926,351,103
2037939,371,103
2037949,325,103
2037960,357,103
2037967,347,103
2037976,328,103
2037991,361,103
2038000,328,103
2038011,344,103
2038017,345,103
2038031,398,103
2038034,658,106
2038051,659,106
2038063,537,106
2038073,250,106
2038082,297,106
2038093,352,106
2038100,335,106
2038114,316,106
2038124,353,106
2038133,322,106
2038144,342,106
2038150,353,106
2038165,328,106
2038175,366,106
2038183,344,106
2038196,350,106
2038207,384,106
2038217,353,106
2038226,386,106
2038234,383,106
2038247,365,106
2038251,403,106
2038266,371,106
2038270,393,106
2038284,415,106
2038284,398,106
2038308,452,106
2038317,441,106
2038326,453,106
2038339,489,106
2038349,450,106
2038351,454,106
2038367,407,106
2038381,345,106
2038388,347,106
2038401,291,106
2038411,294,106
2038417,304,106
2038432,278,106
2038441,321,106
2038451,305,106
2038463,305,106
2038471,332,106
2038483,291,106
2038493,315,106
2038500,305,106
2038514,280,106
2038523,314,106
2038533,281,106
2038544,297,106
2038551,315,106
2038564,283,106
2038567,320,106
2038583,300,106
2038596,300,106
2038600,331,106
2038616,298,106
2038627,328,106
2038634,322,106
2038647,296,106
2038657,329,106
2038666,291,106
2038678,298,106
2038684,309,106
2038684,275,106
2038709,313,106
2038717,294,106
2038726,289,106
2038740,318,106
2038750,283,106
2038760,313,106
2038767,311,106
2038775,292,106
2038791,327,106
2038801,293,106
2038801,307,106
2038817,322,106
2038832,290,106
2038842,326,106
2038851,306,106
2038859,299,106
2038868,327,106
2038883,289,106
2038893,316,106
2038900,317,106
2038914,296,106
2038924,335,106
2038933,305,106
2038946,321,106
2038955,334,106
2038965,301,106
2038975,352,106
2038983,340,106
2038996,325,106
2039007,349,106
2039016,305,106
2039017,327,106
2039033,326,106
2039048,302,106
2039051,344,106
2039067,312,106
2039074,323,106
2039083,332,106
2039099,306,106
2039100,501,110
2039117,658,110
2039130,657,110
2039140,324,110
2039151,230,110
2039161,331,110
2039167,322,110
2039181,291,110
2039192,329,110
2039200,297,110
2039212,305,110
2039218,322,110
2039233,284,110
2039243,323,110
2039251,307,110
2039264,303,110
2039273,338,110
2039283,306,110
2039294,335,110
2039301,338,110
2039301,317,110
2039318,359,110
2039334,333,110
2039346,351,110
2039355,374,110
2039365,352,110
2039375,403,110
2039383,399,110
2039383,404,110
2039400,443,110
2039416,405,109
2039426,419,109
2039433,395,109
2039433,336,109
2039459,340,109
2039467,287,109
2039479,281,109
2039488,291,109
2039500,255,109
2039510,291,109
2039516,277,109
2039530,268,109
2039534,300,109
2039550,265,109
2039561,290,109
2039567,296,109
2039581,269,109
2039592,309,109
2039600,276,109
2039612,279,109
2039619,298,109
2039633,261,109
2039633,294,109
2039652,281,109
2039664,272,109
2039674,304,109
2039684,267,109
2039695,292,109
2039700,294,109
2039715,268,109
2039724,307,109
2039733,277,109
2039733,282,109
2039756,305,109
2039766,269,109
2039776,304,109
2039783,289,109
2039797,277,109
2039807,312,109
2039817,278,109
2039820,304,109
2039835,310,109
2039849,284,109
2039852,323,109
2039867,292,109
2039875,296,109
2039884,317,109
2039900,282,109
2039911,318,109
2039918,308,109
2039926,299,109
2039934,334,109
2039950,300,109
2039961,323,109
2039967,327,109
2039982,301,109
2039993,339,109
2040000,310,109
2040000,316,109
2040017,338,109
2040033,299,109
2040043,336,109
2040052,324,109
2040064,312,109
2040074,346,109
2040083,310,109
2040095,332,109
2040101,338,109
2040101,311,109
2040126,352,109
2040133,322,109
2040147,326,109
2040153,348,109
2040166,312,109
2040176,344,109
2040183,328,109
2040197,311,109
2040201,346,109
2040217,309,109
2040229,333,109
2040234,341,109
2040249,313,109
2040259,364,109
2040267,342,109
2040275,333,109
2040284,354,109
2040300,308,109
2040311,337,109
2040317,321,109
2040326,304,109
2040341,339,109
2040350,301,109
2040362,323,109
2040372,321,109
2040382,305,109
2040392,514,104
2040400,658,104
2040400,651,104
2040424,277,104
2040434,230,104
2040444,326,104
2040454,302,104
2040464,279,104
2040475,314,104
2040484,274,104
2040484,294,104
2040500,298,104
2040516,269,104
2040525,316,104
2040534,288,104
2040534,300,104
2040557,333,104
2040567,297,104
2040576,341,104
2040582,332,104
2040598,323,104
2040600,364,104
2040617,329,104
2040626,355,104
2040639,368,104
2040649,345,104
2040659,401,104
2040666,384,104
2040680,402,104
2040690,438,104
2040700,393,104
2040700,426,104
2040716,389,104
2040731,338,104
2040742,344,104
2040750,275,104
2040762,283,104
2040772,287,104
2040783,251,104
2040793,305,104
2040800,281,104
2040813,291,104
2040825,321,104
2040833,276,104
2040844,314,104
2040854,299,104
2040865,282,104
2040876,320,104
2040883,273,104
2040896,297,104
2040900,307,104
2040916,269,104
2040926,318,104
2040933,290,104
2040946,297,104
2040954,329,104
2040967,285,104
2040977,328,104
2040988,315,104
2040998,298,104
2041001,340,104
2041017,292,104
2041030,313,104
2041040,319,104
2041050,281,104
2041060,326,104
2041067,299,104
2041080,302,104
2041091,335,104
2041100,292,104
2041111,335,104
2041120,325,104
2041132,307,104
2041142,351,104
2041151,310,104
2041162,338,104
2041172,352,104
2041183,316,104
2041194,362,104
2041200,332,104
2041214,336,104
2041224,367,104
2041233,322,104
2041245,363,104
2041255,352,104
2041265,332,104
2041275,373,104
2041284,333,104
2041284,356,104
2041306,366,104
2041316,329,104
2041327,377,104
2041333,347,104
2041348,345,104
2041357,386,104
2041366,350,104
2041378,381,104
2041388,366,104
2041398,340,104
2041400,378,104
2041417,332,104
2041428,353,104
2041432,369,104
2041450,328,104
2041460,376,104
2041466,340,104
2041480,339,104
2041492,512,106
2041500,658,106
2041511,659,106
2041522,405,106
2041532,235,106
2041543,371,106
2041550,330,106
2041562,342,106
2041567,358,106
2041583,322,106
2041593,368,106
2041601,342,106
2041614,344,106
2041625,381,106
2041634,338,106
2041645,376,106
2041655,375,106
2041666,361,106
2041676,409,106
2041683,376,106
2041696,398,106
2041700,416,106
2041717,378,106
2041727,428,106
2041734,410,106
2041734,417,106
2041758,462,106
2041767,432,106
2041776,480,106
2041784,483,106
2041799,461,106
2041801,496,106
2041818,431,106
2041830,412,106
2041834,391,106
2041850,324,106
2041860,352,106
2041867,318,106
2041881,309,106
2041883,345,106
2041899,300,106
2041912,337,106
2041922,331,106
2041922,300,106
2041943,341,106
2041950,297,106
2041955,313,106
2041974,332,106
2041983,295,106
2041995,342,106
2042000,321,106
2042015,315,106
2042024,353,106
2042033,308,106
2042045,345,106
2042056,342,106
2042066,318,106
2042070,364,106
2042083,324,106
2042097,338,106
2042107,356,106
2042116,310,106
2042127,346,106
2042133,314,106
2042147,299,106
2042158,330,106
2042166,279,106
2042178,313,106
2042183,313,106
2042199,288,106
2042209,339,106
2042216,303,106
2042230,316,106
2042240,333,106
2042250,288,106
2042261,331,106
2042271,305,106
2042282,294,106
2042292,330,106
2042299,287,106
2042312,320,106
2042319,316,106
2042333,287,106
2042334,332,106
2042351,295,106
2042356,304,106
2042374,321,106
2042384,288,106
2042384,338,106
2042399,300,106
2042415,288,106
2042425,318,106
2042434,270,106
2042446,300,106
2042456,302,106
2042467,277,106
2042476,327,106
2042483,293,106
2042497,302,106
2042500,316,106
2042516,387,106
2042528,657,109
2042538,658,109
2042548,336,109
2042558,224,109
2042567,264,109
2042579,301,109
2042583,295,109
2042600,269,109
2042610,318,109
2042618,281,109
2042631,291,109
2042641,310,109
2042650,266,109
2042661,310,109
2042667,292,109
2042682,291,109
2042691,336,109
2042700,301,109
2042713,343,109
2042723,353,109
2042733,325,109
2042744,374,109
2042750,341,109
2042764,356,109
2042768,387,109
2042783,355,109
2042783,417,109
2042800,414,109
2042815,412,109
2042826,456,109
2042834,405,109
2042846,411,109
2042850,375,109
2042867,307,109
2042877,324,109
2042884,269,109
2042897,268,109
2042908,293,109
2042917,257,109
2042928,307,109
2042938,296,109
2042949,285,109
2042960,325,109
2042967,279,109
2042967,308,109
2042990,308,109
2043000,273,109
2043000,317,109
2043017,279,109
2043031,287,109
2043041,312,109
2043050,268,109
2043062,310,109
2043072,293,109
2043082,282,109
2043092,323,109
2043100,278,109
2043113,306,109
2043123,313,109
2043134,280,109
2043143,326,109
2043150,292,109
2043157,298,109
2043167,324,109
2043184,279,109
2043196,320,109
2043201,306,109
2043201,292,109
2043217,335,109
2043234,291,109
2043246,320,109
2043257,325,109
2043266,292,109
2043278,338,109
2043283,301,109
2043297,304,109
2043300,329,109
2043317,284,109
2043328,325,109
2043339,312,109
2043349,300,109
2043359,345,109
2043369,299,109
2043369,327,109
2043390,334,109
2043400,296,109
2043400,343,109
2043416,309,109
2043432,311,109
2043441,337,109
2043450,289,109
2043462,331,109
2043472,319,109
2043482,307,109
2043493,351,109
2043500,306,109
2043513,332,109
2043523,336,109
2043533,301,109
2043544,347,109
2043549,314,109
2043565,320,109
2043575,350,109
2043584,305,109
2043595,346,109
2043601,331,109
2043616,312,109
2043626,353,109
2043634,307,109
2043634,333,109
2043657,340,109
2043666,304,109
2043677,357,109
2043683,340,109
2043698,335,109
2043709,363,109
2043717,314,109
2043728,347,109
2043734,330,109
2043749,308,109
2043759,351,109
2043770,304,109
2043780,328,109
2043784,335,109
2043799,286,109
2043812,404,103
2043819,606,103
2043832,659,103
2043833,560,103
2043851,202,103
2043857,328,103
2043866,331,103
2043883,296,103
2043893,335,103
2043900,289,103
2043914,312,103
2043923,320,103
2043933,283,103
2043944,330,103
2043955,301,103
2043966,306,103
2043975,342,103
2043984,302,103
2043984,346,103
2044001,338,103
2044016,319,103
2044027,367,103
2044034,324,103
2044034,348,103
2044057,362,103
2044067,330,103
2044078,390,103
2044084,374,103
2044084,388,103
2044109,428,103
2044117,387,103
2044125,423,103
2044140,398,103
2044150,346,103
2044160,353,103
2044167,278,103
2044173,278,103
2044190,280,103
2044199,239,103
2044211,292,103
2044217,267,103
2044225,273,103
2044242,308,103
2044250,260,103
2044263,295,103
2044273,280,103
2044283,254,103
2044293,296,103
2044299,250,103
2044314,272,103
2044323,282,103
2044333,243,103
2044345,296,103
2044350,271,103
2044358,275,103
2044376,311,103
2044385,270,103
2044397,312,103
2044407,302,103
2044417,278,103
2044427,325,103
2044434,278,103
2044434,295,103
2044458,306,103
2044466,264,103
2044479,313,103
2044484,287,103
2044499,289,103
2044501,328,103
2044517,287,103
2044529,334,103
2044534,329,103
2044550,306,103
2044560,355,103
2044566,314,103
2044581,332,103
2044591,344,103
2044600,305,103
2044612,353,103
2044620,328,103
2044632,328,103
2044642,365,103
2044650,320,103
2044662,356,103
2044673,348,103
2044683,323,103
2044694,368,103
2044700,321,103
2044714,340,103
2044717,360,103
2044733,325,103
2044745,378,103
2044750,356,103
2044759,358,103
2044776,396,103
2044784,349,103
2044784,388,103
2044807,380,103
2044816,351,103
2044828,404,104
2044833,374,104
2044848,388,104
2044858,402,104
2044867,358,104
2044879,397,104
2044889,367,104
2044899,360,104
2044909,396,104
2044919,346,104
2044930,380,104
2044934,376,104
2044950,339,104
2044961,441,104
2044969,635,104
2044969,660,104
2044992,656,104
2045000,277,104
2045012,358,104
2045022,376,104
2045033,354,104
2045034,381,104
2045050,331,104
2045064,362,104
2045074,357,104
2045083,335,104
2045094,386,104
2045100,346,104
2045115,365,104
2045126,387,104
2045134,350,104
2045146,401,104
2045156,381,104
2045166,374,104
2045167,416,104
2045183,372,104
2045197,398,104
2045200,397,104
2045216,378,104
2045228,435,104
2045233,406,104
2045248,436,104
2045259,468,104
2045266,430,104
2045279,470,104
2045290,429,104
2045300,387,104
2045310,383,104
2045319,301,104
2045319,310,104
2045333,296,104
2045350,264,104
2045361,313,104
2045367,280,104
2045382,296,104
2045383,315,104
2045401,270,104
2045412,312,104
2045421,283,104
2045433,270,104
2045444,308,104
2045450,264,104
2045459,299,104
2045469,300,104
2045483,271,104
2045495,320,104
2045500,280,104
2045515,289,104
2045526,311,104
2045534,271,104
2045546,316,104
2045551,297,104
2045566,288,104
2045569,328,104
2045584,281,104
2045584,310,104
2045608,308,104
2045617,272,104
2045625,314,104
2045638,275,104
2045649,288,104
2045659,313,104
2045668,272,104
2045677,321,104
2045684,302,104
2045699,291,104
2045710,331,104
2045717,282,104
2045731,310,104
2045742,310,104
2045750,279,104
2045763,328,104
2045771,292,104
2045782,303,104
2045783,329,104
2045800,283,104
2045812,324,104
2045823,305,104
2045833,292,104
2045844,332,104
2045854,284,104
2045864,315,104
2045869,318,104
2045884,288,104
2045894,338,104
2045899,304,104
2045916,314,104
2045926,341,104
2045933,313,104
2045946,357,104
2045956,330,104
2045967,315,104
2045968,350,104
2045984,299,104
2045984,326,104
2046001,330,104
2046017,297,104
2046029,344,104
2046033,310,104
2046049,307,104
2046059,356,104
2046067,501,105
2046079,659,105
2046090,654,105
2046100,233,105
2046111,299,105
2046119,309,105
2046119,330,105
2046141,333,105
2046150,300,105
2046160,346,105
2046172,309,105
2046183,316,105
2046193,343,105
2046200,301,105
2046200,345,105
2046216,333,105
2046234,324,105
2046245,373,105
2046249,333,105
2046265,364,105
2046275,370,105
2046284,340,105
2046295,391,105
2046306,358,105
2046316,370,105
2046327,412,105
2046334,382,105
2046334,440,105
2046350,437,105
2046366,428,105
2046378,468,105
2046384,410,105
2046384,409,105
2046401,377,105
2046417,310,105
2046429,334,105
2046433,285,105
2046449,283,105
2046460,313,105
2046466,269,105
2046475,312,105
2046483,299,105
2046501,280,105
2046511,322,105
2046518,275,105
2046531,300,105
2046533,307,105
2046551,272,105
2046560,317,105
2046568,284,105
2046583,290,105
2046593,316,105
2046600,272,105
2046600,310,105
2046624,296,105
2046634,275,105
2046644,320,105
2046650,277,105
2046665,303,105
2046675,311,105
2046683,275,105
2046696,323,105
2046706,288,105
2046717,289,105
2046720,319,105
2046733,274,105
2046747,317,105
2046750,305,105
2046766,287,105
2046774,331,105
2046783,286,105
2046783,311,105
2046808,319,105
2046817,279,105
2046825,325,105
2046834,295,105
2046850,298,105
2046860,330,105
2046867,287,105
2046882,327,105
2046891,314,105
2046900,294,105
2046911,339,105
2046921,293,105
2046932,317,105
2046942,326,105
2046950,289,105
2046962,336,105
2046973,306,105
2046983,308,105
2046993,339,105
2047000,294,105
2047015,332,105
2047018,321,105
2047034,298,105
2047034,342,105
2047055,297,105
2047065,320,105
2047075,334,105
2047083,294,105
2047096,341,105
2047106,311,105
2047116,310,105
2047127,343,105
2047134,309,105
2047147,349,105
2047158,328,105
2047168,308,105
2047178,345,105
2047184,293,105
2047199,316,105
2047208,324,105
2047219,284,105
2047230,330,105
2047240,299,105
2047250,292,105
2047259,325,105
2047268,411,103
2047268,658,103
2047284,658,103
2047300,291,103
2047312,245,103
2047322,277,103
2047332,292,103
2047343,296,103
2047351,256,103
2047363,303,103
2047371,274,103
2047383,272,103
2047394,304,103
2047401,259,103
2047415,299,103
2047425,296,103
2047433,280,103
2047444,334,103
2047455,298,103
2047466,324,103
2047476,343,103
2047483,307,103
2047496,358,103
2047507,333,103
2047516,337,103
2047527,382,103
2047533,350,103
2047548,403,103
2047558,407,103
2047566,390,103
2047578,437,103
2047589,389,103
2047598,388,103
2047609,373,103
2047617,301,103
2047630,317,103
2047640,276,103
2047650,267,103
2047661,300,103
2047667,258,103
2047681,299,103
2047684,298,103
2047700,269,103
2047712,315,103
2047722,273,103
2047732,290,103
2047744,305,103
2047750,265,103
2047763,316,103
2047773,295,103
2047783,290,103
2047794,325,103
2047800,280,103
2047800,315,103
2047824,314,103
2047835,288,103
2047845,338,103
2047850,302,103
2047866,321,103
2047877,340,103
2047883,297,103
2047897,338,103
2047901,311,103
2047917,301,103
2047927,331,103
2047934,285,103
2047948,321,103
2047959,318,103
2047966,293,103
2047979,343,103
2047989,308,103
2048000,328,103
2048001,346,103
2048017,308,103
2048027,357,103
2048033,335,103
2048050,324,103
2048062,361,103
2048067,317,103
2048082,353,103
2048084,353,103
2048099,325,103
2048099,368,103
2048117,333,103
2048133,349,103
2048134,371,103
2048150,329,103
2048162,375,103
2048166,355,103
2048183,348,103
2048195,384,103
2048200,342,103
2048216,391,103
2048225,387,103
2048233,354,103
2048245,398,103
2048256,352,103
2048267,363,103
2048276,382,103
2048283,342,103
2048283,388,103
2048301,362,103
2048317,355,103
2048327,382,103
2048338,349,103
2048348,552,103
2048359,659,103
2048366,659,103
2048379,378,103
2048390,271,103
2048400,364,103
2048401,379,103
2048417,328,103
2048431,372,103
2048440,349,103
2048451,339,103
2048451,378,103
2048468,338,103
2048476,374,103
2048484,375,103
2048500,347,103
2048513,397,103
2048517,363,103
2048533,377,103
2048544,399,103
2048550,357,103
2048564,400,103
2048574,380,103
2048584,379,103
2048584,430,103
2048600,401,103
2048615,447,103
2048625,461,103
2048634,446,103
2048634,499,103
2048657,461,103
2048666,460,103
2048676,450,103
2048683,367,103
2048698,373,103
2048708,325,103
2048717,299,103
2048729,332,103
2048733,288,103
2048749,324,103
2048759,328,103
2048766,298,103
2048779,341,103
2048790,299,103
2048800,305,103
2048810,323,103
2048817,279,103
2048817,325,103
2048841,306,103
2048850,296,103
2048861,337,103
2048872,288,103
2048882,314,103
2048892,318,103
2048900,287,103
2048913,335,103
2048923,301,103
2048933,313,103
2048945,338,103
2048950,292,103
2048965,329,103
2048975,305,103
2048983,284,103
2048995,316,103
2049000,271,103
2049016,300,103
2049026,305,103
2049033,277,103
2049046,326,103
2049057,294,103
2049067,305,103
2049078,331,103
2049084,285,103
2049099,322,103
2049100,299,103
2049116,283,103
2049128,321,103
2049134,277,103
2049149,307,103
2049160,315,103
2049167,284,103
2049180,330,103
2049190,296,103
2049200,302,103
2049211,324,103
2049216,280,103
2049232,322,103
2049242,304,103
2049250,289,103
2049262,331,103
2049273,289,103
2049283,318,103
2049293,324,103
2049300,291,103
2049300,339,103
2049316,305,103
2049334,312,103
2049344,338,103
2049355,300,103
2049365,352,103
2049372,325,103
2049384,309,103
2049396,343,103
2049401,293,103
2049417,320,103
2049426,326,103
2049436,293,103
2049446,340,103
2049458,307,103
2049467,310,103
2049478,330,103
2049484,393,103
2049484,657,105
2049500,659,105
2049517,398,105
2049529,240,105
2049533,283,105
2049549,315,105
2049560,310,105
2049566,275,105
2049580,322,105
2049591,287,105
2049600,293,105
2049612,320,105
2049621,279,105
2049631,321,105
2049642,308,105
2049650,298,105
2049662,347,105
2049669,310,105
2049669,341,105
2049693,352,105
2049700,321,105
2049700,371,105
2049719,341,105
2049734,352,105
2049744,390,105
2049755,358,105
2049765,415,105
2049776,414,105
2049783,404,105
2049796,449,105
2049806,402,105
2049817,408,105
2049819,383,105
2049832,313,105
2049848,334,105
2049850,286,105
2049867,282,105
2049877,311,105
2049884,270,105
2049898,315,105
2049909,306,105
2049917,288,105
2049929,330,105
2049934,282,105
2049950,305,105
2049960,315,105
2049966,280,105
2049980,329,105
2049992,297,105
2049999,301,105
2050012,333,105
2050018,286,105
2050031,327,105
2050042,312,105
2050050,293,105
2050063,338,105
2050073,297,105
2050083,321,105
2050094,332,105
2050100,297,105
2050114,341,105
2050125,309,105
2050133,307,105
2050133,336,105
2050149,286,105
2050166,325,105
2050176,312,105
2050183,291,105
2050196,338,105
2050206,296,105
2050217,320,105
2050227,333,105
2050233,295,105
2050248,340,105
2050258,307,105
2050266,305,105
2050279,335,105
2050284,289,105
2050299,330,105
2050309,320,105
2050318,297,105
2050329,341,105
2050340,300,105
2050350,318,105
2050361,332,105
2050367,292,105
2050367,338,105
2050392,310,105
2050400,309,105
2050400,342,105
2050417,296,105
2050432,334,105
2050442,322,105
2050450,302,105
2050450,346,105
2050474,301,105
2050483,319,105
2050494,334,105
2050500,296,105
2050500,342,105
2050526,312,105
2050534,309,105
2050545,343,105
2050556,294,105
2050566,332,105
2050577,324,105
2050584,299,105
2050596,349,105
2050607,321,105
2050617,331,105
2050628,344,105
2050634,300,105
2050648,337,105
2050659,304,105
2050668,299,105
2050679,332,105
2050689,285,105
2050699,320,105
2050701,312,105
2050717,278,105
2050731,403,101
2050741,603,101
2050750,659,101
2050750,494,101
2050767,175,101
2050781,312,101
2050784,296,101
2050801,279,101
2050812,311,101
2050817,266,101
2050832,300,101
2050835,294,101
2050850,271,101
2050850,317,101
2050874,276,101
2050883,297,101
2050894,319,101
2050900,285,101
2050915,338,101
2050923,321,101
2050934,325,101
2050946,365,101
2050956,322,101
2050966,359,101
2050977,358,101
2050984,339,101
2050997,397,101
2051000,369,101
2051016,396,101
2051028,423,101
2051033,387,101
2051049,430,101
2051058,390,101
2051066,356,101
2051079,357,101
2051084,283,101
2051100,296,101
2051101,284,101
2051117,257,101
2051131,307,101
2051134,273,101
2051149,294,101
2051161,315,101
2051170,270,101
2051182,312,101
2051184,284,101
2051201,275,101
2051201,312,101
2051218,267,101
2051233,303,101
2051244,300,101
2051250,273,101
2051264,323,101
2051274,286,101
2051283,303,101
2051294,323,101
2051300,286,101
2051315,335,101
2051326,312,101
2051333,308,101
2051346,347,101
2051357,299,101
2051367,331,101
2051367,323,101
2051383,292,101
2051383,339,101
2051408,300,101
2051417,310,101
2051428,330,101
2051433,291,101
2051449,335,101
2051460,318,101
2051467,312,101
2051480,350,101
2051491,307,101
2051500,344,101
2051510,342,101
2051519,311,101
2051530,355,101
2051541,312,101
2051550,322,101
2051562,342,101
2051567,298,101
2051583,343,101
2051593,324,101
2051600,321,101
2051600,364,101
2051617,316,101
2051634,351,101
2051634,352,101
2051650,326,101
2051664,373,101
2051675,335,101
2051684,353,101
2051684,388,101
2051701,344,101
2051701,383,101
2051717,360,101
2051734,341,101
2051746,377,101
2051757,331,101
2051767,363,101
2051778,365,101
2051784,336,101
2051784,382,101
2051808,335,101
2051817,406,104
2051829,656,104
2051839,660,104
2051849,626,104
2051860,251,104
2051867,305,104
2051872,380,104
2051890,326,104
2051900,354,104
2051911,360,104
2051916,332,104
2051931,381,104
2051941,347,104
2051949,361,104
2051961,387,104
2051972,342,104
2051983,383,104
2051993,369,104
2052000,361,104
2052014,404,104
2052018,360,104
2052034,392,104
2052044,399,104
2052050,371,104
2052065,426,104
2052070,401,104
2052084,426,104
2052096,464,104
2052105,432,104
2052116,486,104
2052127,475,104
2052134,457,104
2052134,479,104
2052151,399,104
2052168,392,104
2052178,364,104
2052183,309,104
2052198,342,104
2052200,304,104
2052217,313,104
2052229,341,104
2052234,300,104
2052249,338,104
2052259,314,104
2052267,295,104
2052275,333,104
2052284,288,104
2052300,316,104
2052312,325,104
2052317,299,104
2052326,350,104
2052342,314,104
2052351,320,104
2052351,336,104
2052373,285,104
2052383,324,104
2052393,309,104
2052400,296,104
2052414,342,104
2052424,302,104
2052434,337,104
2052434,342,104
2052451,304,104
2052451,344,104
2052476,295,104
2052484,288,104
2052496,304,104
2052506,254,104
2052517,298,104
2052527,289,104
2052533,280,104
2052547,331,104
2052557,295,104
2052567,323,104
2052577,327,104
2052588,286,104
2052598,326,104
2052609,286,104
2052617,286,104
2052629,313,104
2052640,268,104
2052650,313,104
2052661,301,104
2052667,285,104
2052681,329,104
2052690,283,104
2052699,308,104
2052711,315,104
2052717,278,104
2052732,323,104
2052743,288,104
2052750,294,104
2052763,326,104
2052773,281,104
2052783,325,104
2052794,310,104
2052800,293,104
2052800,338,104
2052817,292,104
2052833,323,104
2052845,344,104
2052851,301,104
2052865,341,104
2052876,304,104
2052883,304,104
2052896,329,104
2052907,278,104
2052917,320,104
2052927,307,104
2052934,289,104
2052948,334,104
2052950,281,104
2052967,362,104
2052979,596,105
2052983,658,105
2052999,570,105
2053001,196,105
2053018,277,105
2053030,337,105
2053040,279,105
2053049,319,105
2053060,309,105
2053067,292,105
2053074,337,105
2053091,293,105
2053100,316,105
2053112,327,105
2053117,289,105
2053133,340,105
2053142,317,105
2053150,321,105
2053163,354,105
2053174,313,105
2053183,362,105
2053194,356,105
2053200,342,105
2053200,393,105
2053217,355,105
2053234,391,105
2053245,413,105
2053256,386,105
2053266,445,105
2053277,417,105
2053283,416,105
2053296,434,105
2053307,360,105
2053317,365,105
2053321,324,105
2053333,283,105
2053349,318,105
2053354,272,105
2053367,298,105
2053379,313,105
2053389,279,105
2053399,326,105
2053410,293,105
2053417,289,105
2053431,316,105
2053441,264,105
2053450,300,105
2053461,291,105
2053467,271,105
2053482,324,105
2053492,285,105
2053500,309,105
2053512,321,105
2053517,277,105
2053533,323,105
2053543,293,105
2053550,292,105
2053564,327,105
2053567,282,105
2053584,322,105
2053594,314,105
2053600,288,105
2053615,329,105
2053625,280,105
2053634,300,105
2053646,312,105
2053650,276,105
2053666,327,105
2053677,302,105
2053683,306,105
2053683,345,105
2053700,299,105
2053717,336,105
2053728,322,105
2053733,293,105
2053748,334,105
2053759,291,105
2053767,310,105
2053780,327,105
2053790,289,105
2053799,339,105
2053801,312,105
2053816,310,105
2053831,346,105
2053841,298,105
2053850,337,105
2053850,331,105
2053868,308,105
2053876,354,105
2053884,312,105
2053900,332,105
2053912,346,105
2053917,306,105
2053933,353,105
2053934,327,105
2053950,322,105
2053964,357,105
2053967,308,105
2053984,345,105
2053994,338,105
