Time (s),Filtered Signal
0.0,0.020777032062929
0.0333700036670333,-0.1482719242610809
0.0667400073340667,-0.3377568272210703
0.1001100110011001,-0.5545357800167218
0.1334800146681334,-0.7836380290604124
0.1668500183351668,-0.9891727834751488
0.2002200220022002,-1.124430857145287
0.2335900256692336,-1.1477262085776894
0.2669600293362669,-1.0380347035207165
0.3003300330033003,-0.804258375252563
0.3337000366703336,-0.4842697843154986
0.367070040337367,-0.1339337704027497
0.4004400440044004,0.1896506829388816
0.4338100476714338,0.4442217186364449
0.4671800513384672,0.6118788791956755
0.5005500550055005,0.6992638463482782
0.5339200586725339,0.7295549130199835
0.5672900623395672,0.7304081012138205
0.6006600660066006,0.7228307790073406
0.634030069673634,0.7147618236418958
0.6674000733406673,0.700806369931769
0.7007700770077008,0.6672464007152805
0.7341400806747341,0.5998443556152827
0.7675100843417675,0.4913241080930317
0.8008800880088008,0.3457362797534485
0.8342500916758342,0.1780744452353808
0.8676200953428675,0.0092480203600077
0.9009900990099008,-0.1416582760571333
0.9343601026769344,-0.2646769023993239
0.9677301063439676,-0.3625952618573633
1.001100110011001,-0.4490535498625435
1.0344701136780343,-0.5414921336406054
1.0678401173450678,-0.6516603390339852
1.1012101210121013,-0.7777347659271612
1.1345801246791345,-0.9017499586318226
1.167950128346168,-0.994010973481884
1.2013201320132012,-1.0231873183952884
1.234690135680235,-0.9681384345167124
1.268060139347268,-0.826455846545468
1.3014301430143014,-0.6159006010591377
1.3348001466813346,-0.3680124791641938
1.368170150348368,-0.1167953588912052
1.4015401540154016,0.1122692827596657
1.4349101576824348,0.3078691982332757
1.4682801613494685,0.47100352140027
1.5016501650165015,0.6074864655930106
1.535020168683535,0.7196949873170804
1.5683901723505682,0.802670588471178
1.6017601760176017,0.846886536297765
1.6351301796846351,0.8457546510653801
1.6685001833516684,0.8028339675397055
1.701870187018702,0.733685954413401
1.735240190685735,0.660485535215264
1.7686101943527686,0.6019375629608077
1.8019801980198016,0.5640391462943173
1.8353502016868355,0.5369341930446523
1.8687202053538687,0.4997192778454468
1.902090209020902,0.4306368109000048
1.9354602126879357,0.3172367050880487
1.968830216354969,0.1613670299991317
2.002200220022002,-0.0230562078196329
2.035570223689036,-0.2175414544957849
2.0689402273560686,-0.4071662926807878
2.102310231023102,-0.584835760185407
2.135680234690136,-0.7496745542444827
2.169050238357169,-0.9010399042885456
2.2024202420242025,-1.032073961813116
2.2357902456912355,-1.1268938376940538
2.269160249358269,-1.1635128152116243
2.3025302530253025,-1.121566272453495
2.335900256692336,-0.9914377626805208
2.369270260359369,-0.7805993626277786
2.4026402640264024,-0.5141579704175059
2.436010267693436,-0.229088124847059
2.4693802713604693,0.0357364096399103
2.502750275027503,0.2499587661333738
2.536120278694536,0.3988320446588839
2.5694902823615693,0.4847398077345204
2.6028602860286028,0.5232156456709102
2.636230289695636,0.5355983195649127
2.669600293362669,0.5413943310182273
2.7029702970297027,0.5529619483155545
2.736340300696736,0.5737134025545475
2.7697103043637696,0.5994731201215675
2.803080308030803,0.6216416274255804
2.836450311697836,0.6306617957812578
2.8698203153648696,0.6187607265789586
2.903190319031903,0.5816013751305554
2.9365603226989365,0.5189335438701557
2.96993032636597,0.434444103518825
3.003300330033003,0.3348940192759731
3.0366703337000365,0.2285409913396593
3.07004033736707,0.1229642706514798
3.1034103410341034,0.0227335125531811
3.1367803447011364,-0.0722856379412819
3.17015034836817,-0.1670866211180039
3.203520352035204,-0.2695671605972575
3.236890355702237,-0.386664577486196
3.2702603593692703,-0.5197273319745283
3.3036303630363038,-0.6609506486423795
3.3370003667033368,-0.7927045529305807
3.3703703703703702,-0.8907322378582984
3.403740374037404,-0.9307090411206708
3.4371103777044367,-0.896099443957952
3.47048038137147,-0.7843597766787456
3.503850385038504,-0.608857539738679
3.537220388705537,-0.3954491391040746
3.5705903923725706,-0.1748655443131898
3.603960396039604,0.0261267263732632
3.637330399706637,0.1913136047498879
3.670700403373671,0.3169906591127661
3.704070407040704,0.4090874496296414
3.7374404107077375,0.4774314115742327
3.7708104143747705,0.5302054586637297
3.804180418041804,0.5711247742829463
3.837550421708837,0.6000667498576249
3.870920425375871,0.6158796086652889
3.904290429042904,0.6190268817523709
3.937660432709938,0.6121675461703371
3.971030436376971,0.5983463828693133
4.004400440044004,0.5781002627994105
4.037770443711038,0.5474359399981802
4.071140447378071,0.4979996202501561
4.104510451045105,0.4194074730788563
4.137880454712137,0.302591500579814
4.171250458379171,0.142776480159843
4.204620462046204,-0.0587028457628954
4.237990465713238,-0.2936889923618165
4.271360469380271,-0.5470928856130333
4.304730473047305,-0.7971400589540772
4.338100476714338,-1.0164294843743962
4.371470480381372,-1.1747816006549496
4.404840484048405,-1.2445468274351654
4.438210487715438,-1.207777318855208
4.471580491382471,-1.0630415291376851
4.5049504950495045,-0.8287705509158206
4.538320498716538,-0.5407242747498121
4.571690502383571,-0.2434163261181278
4.605060506050605,0.0218943426564602
4.638430509717638,0.2282134398719864
4.671800513384672,0.3685574933205572
4.705170517051705,0.4543586434591846
4.738540520718738,0.5076382439644276
4.771910524385771,0.5506804865709048
4.805280528052805,0.597693059533225
4.838650531719838,0.6515174512986961
4.872020535386872,0.705706697725167
4.905390539053905,0.7497543574708537
4.938760542720939,0.7742346133572748
4.972130546387972,0.7734478058984697
5.005500550055006,0.7451480409947578
5.038870553722038,0.6887864064398005
5.072240557389072,0.6043514825963802
5.105610561056105,0.493034036069921
5.138980564723139,0.3592280540114091
5.172350568390172,0.2119943515287102
5.2057205720572055,0.0640527470780889
5.239090575724239,-0.0722108077766966
5.272460579391272,-0.1901585471411673
5.305830583058306,-0.2927534084936901
5.3392005867253385,-0.3920994619914189
5.372570590392372,-0.5038628474687565
5.405940594059405,-0.6384808555415005
5.439310597726439,-0.7931248156468576
5.472680601393472,-0.9486122232300364
5.506050605060506,-1.0735567970130473
5.539420608727539,-1.1347552703663148
5.572790612394573,-1.1096642441605056
5.606160616061606,-0.9954364410903024
5.63953061972864,-0.810247518755001
5.672900623395672,-0.5861385080009306
5.706270627062706,-0.3566729740886322
5.739640630729739,-0.1452502266557676
5.773010634396773,0.0404927097132523
5.806380638063806,0.2059816674298414
5.83975064173084,0.3608486708060886
5.873120645397873,0.5091941632916213
5.9064906490649065,0.6444728375323909
5.93986065273194,0.7517182444921393
5.9732306563989725,0.8155677538372484
6.006600660066006,0.8292219621645218
6.03997066373304,0.7989714381840604
6.073340667400073,0.7415478176628608
6.106710671067106,0.6757797028042778
6.14008067473414,0.6133739020763995
6.173450678401173,0.5541395272015031
6.206820682068207,0.4883613837085362
6.24019068573524,0.4048652188125026
6.273560689402273,0.3000105803606551
6.306930693069306,0.1822494972962853
6.34030069673634,0.0692935324325704
6.373670700403373,-0.0209974344430931
6.407040704070407,-0.0813186130371101
6.44041070773744,-0.1213061755119985
6.473780711404474,-0.1654812953967872
6.507150715071507,-0.2426382153646706
6.540520718738541,-0.3709516150422721
6.573890722405573,-0.5457409290107116
6.607260726072607,-0.7363154101983589
6.64063072973964,-0.8945638586217335
6.6740007334066735,-0.9724713560098184
6.707370737073707,-0.9411387885931732
6.7407407407407405,-0.802618452032975
6.774110744407774,-0.5889274080596993
6.807480748074807,-0.3486732397895828
6.840850751741841,-0.1277583367200592
6.8742207554088735,0.0466221447365536
6.907590759075907,0.1715461980643754
6.94096076274294,0.2620925398920138
6.974330766409974,0.3379860773564367
7.007700770077007,0.4110594503753969
7.041070773744041,0.479986554608202
7.074440777411074,0.5338951300984024
7.107810781078108,0.5612840398135905
7.141180784745141,0.5581563066765817
7.174550788412174,0.5305777815664594
7.207920792079207,0.4907766453050173
7.241290795746241,0.4498092735235239
7.274660799413274,0.4114309807640096
7.308030803080308,0.3704688311199668
7.341400806747341,0.315909380458718
7.3747708104143745,0.2362223875402748
7.408140814081408,0.1237623892824553
7.4415108177484415,-0.0234598657983885
7.474880821415475,-0.2020813634730666
7.5082508250825075,-0.4038740437626715
7.541620828749541,-0.6150443535008986
7.5749908324165744,-0.8148591313507733
7.608360836083608,-0.975809608290684
7.641730839750641,-1.0675413345699376
7.675100843417675,-1.0647833835430016
7.708470847084708,-0.956667945306497
7.741840850751742,-0.7530614093518545
7.775210854418775,-0.4841928496871209
7.808580858085808,-0.1928040633984276
7.841950861752841,0.0783525702971915
7.875320865419875,0.2985889958820283
7.908690869086908,0.4561201089408043
7.942060872753942,0.5573860988302165
7.975430876420975,0.6199730621037426
8.008800880088009,0.6628413574654803
8.042170883755041,0.6982560772941951
8.075540887422076,0.7284651158779784
8.108910891089108,0.7476074535877156
8.142280894756142,0.7468850190186489
8.175650898423175,0.7198762627542481
8.20902090209021,0.6654466414989005
8.242390905757242,0.5875036048836085
8.275760909424275,0.4927085362044128
8.309130913091309,0.3881190325508833
8.342500916758341,0.2802038216650928
8.375870920425376,0.1752317511797874
8.409240924092408,0.079714183698517
8.442610927759443,-0.0006711163253933
8.475980931426475,-0.0641450475741499
8.50935093509351,-0.1165234341130858
8.542720938760542,-0.1728571738089232
8.576090942427575,-0.2545819562143477
8.60946094609461,-0.3817777763123689
8.642830949761642,-0.5630151622702191
8.676200953428676,-0.7873547222530559
8.709570957095709,-1.0229756675629884
8.742940960762743,-1.224347811640894
8.776310964429776,-1.345929235143023
8.80968096809681,-1.3570485340725578
8.843050971763843,-1.251724734155055
8.876420975430875,-1.0493034219013324
8.90979097909791,-0.7859588639032095
8.943160982764942,-0.5012240082847254
8.976530986431976,-0.2256724954283432
9.009900990099007,0.0252379801175309
9.043270993766043,0.249615951928706
9.076640997433076,0.4522140062734297
9.11001100110011,0.6367166037927159
9.143381004767145,0.801394044140279
9.176751008434175,0.9396589781557
9.21012101210121,1.0439305037783475
9.243491015768242,1.109449837492418
9.276861019435277,1.135266096370659
9.31023102310231,1.1220042926311529
9.343601026769344,1.0685928550118666
9.376971030436376,0.9711375626916292
9.41034103410341,0.8258558533556833
9.443711037770443,0.6351500782181362
9.477081041437476,0.4132433659557733
9.51045104510451,0.1870734721241969
9.543821048771544,-0.0099495724474959
9.577191052438575,-0.1499665226301497
9.61056105610561,-0.2234710368731826
9.643931059772644,-0.2464042974331116
9.677301063439677,-0.2567911605526054
9.710671067106713,-0.3005920751031753
9.744041070773743,-0.4116432766678072
9.777411074440776,-0.5940778771549401
9.81078107810781,-0.8155788199626628
9.844151081774845,-1.0158141620872263
9.877521085441876,-1.127894937512347
9.91089108910891,-1.104526808629492
9.944261092775944,-0.937735792650583
9.977631096442977,-0.6633203226084193
10.011001100110011,-0.3477742099119175
10.044371103777044,-0.0632926301684969
10.077741107444076,0.1382560209920935
10.11111111111111,0.2414345358039293
10.144481114778143,0.2674546034793254
10.177851118445178,0.2599038644269825
10.21122112211221,0.263434436250387
10.244591125779245,0.304984044276539
10.277961129446275,0.3848433971539454
10.311331133113312,0.4798530369117395
10.344701136780344,0.5557625275105044
10.378071140447377,0.5825296003835659
10.411441144114413,0.5460831654691741
10.444811147781444,0.452426339126379
10.478181151448478,0.3235369537123556
10.51155115511551,0.1877228829428406
10.544921158782545,0.0687640110522548
10.578291162449576,-0.021999570775736
10.611661166116612,-0.0880674244733326
10.645031169783644,-0.1443095156058986
10.678401173450675,-0.2092975629124377
10.711771177117711,-0.2963936246765088
10.745141180784744,-0.4068274451054477
10.778511184451778,-0.527245811720735
10.81188118811881,-0.6326794326151793
10.845251191785843,-0.6940031207640018
10.878621195452878,-0.6873604973129036
10.911991199119912,-0.6022554391945293
10.945361202786945,-0.4454166462860208
10.97873120645398,-0.239053125412808
11.012101210121012,-0.0142180757056772
11.045471213788044,0.1981457387409822
11.07884121745508,0.3751102664904261
11.112211221122111,0.5059038647835321
11.145581224789144,0.5913882601256533
11.178951228456178,0.6400235470583293
11.212321232123212,0.6627243696314745
11.245691235790243,0.6688779682499012
11.27906123945728,0.6645275765211994
11.312431243124312,0.6522363119461556
11.345801246791344,0.6314215732442842
11.37917125045838,0.598386753988122
11.412541254125411,0.546405678850576
11.445911257792446,0.4670132598953931
11.479281261459478,0.3532943968031944
11.512651265126513,0.2044735424218083
11.546021268793544,0.0294737048568761
11.57939127246058,-0.1533307194198363
11.612761276127612,-0.3214602178095971
11.646131279794645,-0.4571795742314903
11.67950128346168,-0.5556100662351378
11.712871287128712,-0.6272969932410183
11.746241290795746,-0.6927315061914538
11.77961129446278,-0.7705767272033334
11.812981298129811,-0.8652461374508527
11.846351301796846,-0.960634103121478
11.87972130546388,-1.0241877318456347
11.913091309130913,-1.0202655725359524
11.946461312797943,-0.926642122198103
11.97983131646498,-0.7459815130573275
12.013201320132012,-0.5063881351934709
12.046571323799046,-0.250584361724333
12.07994132746608,-0.0189336264513023
12.113311331133112,0.1655700158820147
12.146681334800146,0.3034678354386436
12.18005133846718,0.4138145045660211
12.213421342134213,0.5210221124179824
12.246791345801244,0.6402636450997532
12.28016134946828,0.7684563197993978
12.313531353135312,0.8849281258596936
12.346901356802348,0.9611851633188804
12.38027136046938,0.9748897160611634
12.413641364136414,0.9211556141033664
12.447011367803446,0.8155112979171301
12.48038137147048,0.6868995259293383
12.513751375137511,0.564063403474045
12.547121378804546,0.4621583842365951
12.58049138247158,0.376513191974364
12.613861386138613,0.2868804129695085
12.647231389805649,0.1700166304048052
12.68060139347268,0.0139537630535307
12.713971397139714,-0.1736288995095892
12.747341400806746,-0.3673740779231008
12.78071140447378,-0.5354839083421739
12.814081408140812,-0.6542988771778762
12.847451411807846,-0.7186639343330572
12.88082141547488,-0.7428257621957948
12.914191419141911,-0.7514512313273874
12.947561422808947,-0.7652322359584847
12.98093142647598,-0.7881606354177333
13.014301430143014,-0.8028613552789021
13.047671433810049,-0.776785912501822
13.08104143747708,-0.6771490865506076
13.114411441144114,-0.4882939499212375
13.147781444811146,-0.2235391081432248
13.18115144847818,0.0745739864038217
13.214521452145211,0.3468730102590616
13.247891455812248,0.5383942900265272
13.28126145947928,0.6187842036057821
13.314631463146316,0.5933565182282926
13.348001466813349,0.4998848208682915
13.38137147048038,0.3925965289429052
13.414741474147414,0.3205318351048496
13.448111477814448,0.309657643193899
13.48148148148148,0.3558951868931536
13.514851485148514,0.4308440078927053
13.548221488815548,0.49630050203547
13.58159149248258,0.5204186073279585
13.614961496149617,0.4887338626116172
13.648331499816647,0.4064961694052093
13.681701503483682,0.2928593448690225
13.715071507150714,0.1705550446466409
13.748441510817749,0.0557861481075436
13.78181151448478,-0.047695104734744
13.815181518151814,-0.1483301138989256
13.848551521818848,-0.2607281506349956
13.88192152548588,-0.3964446515000482
13.915291529152915,-0.5554360062251702
13.948661532819948,-0.7219673655421319
13.982031536486982,-0.8670880793961175
14.015401540154016,-0.9570629961841408
14.048771543821047,-0.964507522676683
14.082141547488082,-0.8777123082597567
14.115511551155114,-0.7044604690486018
14.148881554822148,-0.4691705936997713
14.18225155848918,-0.2051458588743165
14.215621562156215,0.0544390273410871
14.248991565823248,0.2832844114696171
14.282361569490282,0.4647080468936832
14.315731573157317,0.5909517367692491
14.349101576824348,0.6611037782511257
14.382471580491382,0.6796206741692673
14.415841584158414,0.6560654082693831
14.449211587825449,0.6050440814885273
14.48258159149248,0.5445881799166827
14.515951595159516,0.4919938058805044
14.549321598826548,0.458013579373456
14.582691602493584,0.4421065027764732
14.616061606160615,0.4318580268008228
14.649431609827648,0.4080800438971843
14.682801613494682,0.354111278052037
14.716171617161717,0.2650995966802178
14.749541620828747,0.1523016125649009
14.782911624495782,0.039428580439686
14.816281628162816,-0.0480256365549409
14.849651631829849,-0.0957386341288574
14.883021635496885,-0.1094436471730896
14.916391639163916,-0.1149228222940734
14.94976164283095,-0.1483029817032928
14.983131646497982,-0.2404264707418338
15.016501650165017,-0.4020132406750544
15.04987165383205,-0.6162206454104282
15.083241657499082,-0.8420764403791674
15.116611661166116,-1.0275586829162056
15.149981664833147,-1.1269834480372642
15.183351668500183,-1.1156770295836924
15.216721672167216,-0.9963321690639884
15.25009167583425,-0.7952232170713041
15.283461679501285,-0.550784216159758
15.316831683168315,-0.2999577880540778
15.35020168683535,-0.0679887646031201
15.383571690502382,0.1349221512780465
15.416941694169417,0.3101682362460354
15.45031169783645,0.4635025224056198
15.483681701503484,0.5981661898292263
15.517051705170516,0.7115934669552259
15.55042170883755,0.7966559686028881
15.583791712504585,0.8460746385282728
15.617161716171616,0.8572750464456743
15.65053171983865,0.8350402482576278
15.683901723505684,0.7905732672559426
15.717271727172715,0.7373128656435214
15.75064173083975,0.6852884956823454
15.784011734506784,0.63645176252104
15.817381738173816,0.5831364271663704
15.85075174184085,0.5106962065197933
15.884121745507883,0.4037411896167905
15.917491749174916,0.2537213587138053
15.95086175284195,0.0645806511113727
15.984231756508985,-0.1464750581221476
16.017601760176017,-0.3541480940890928
16.05097176384305,-0.5343508152236263
16.084341767510082,-0.6734348185505585
16.117711771177117,-0.7726849162703976
16.15108177484415,-0.8454788589091623
16.184451778511182,-0.9082403301182368
16.217821782178216,-0.969721721196367
16.25119178584525,-1.024236791870932
16.284561789512285,-1.0524453570018648
16.317931793179316,-1.029239840401446
16.35130179684635,-0.9345640442676274
16.384671800513384,-0.7618023039372276
16.41804180418042,-0.5202803814481286
16.45141180784745,-0.2319829428132013
16.484781811514484,0.0745860820978223
16.51815181518152,0.3700524811878287
16.55152181884855,0.6277674045089705
16.584891822515583,0.8260410995209574
16.618261826182618,0.9505720855883244
16.651631829849652,0.9975434886708608
16.685001833516683,0.9759032143812666
16.718371837183717,0.906343623794588
16.75174184085075,0.8155860428456332
16.785111844517782,0.7273064136843154
16.818481848184817,0.6536264780607908
16.85185185185185,0.5916327803597609
16.885221855518886,0.5271805811177904
16.918591859185916,0.444365287902016
16.95196186285295,0.335735610054394
16.985331866519985,0.2076155280449875
17.01870187018702,0.0773781392211314
17.05207187385405,-0.0360912629958819
17.085441877521085,-0.1236194096117051
17.11881188118812,-0.192369115912962
17.15218188485515,-0.2638494519456881
17.185551888522184,-0.3637920657530723
17.21892189218922,-0.5086392086362858
17.252291895856253,-0.6951649726512423
17.285661899523284,-0.898212374835372
17.319031903190318,-1.0776311882583212
17.352401906857352,-1.1913167543511547
17.385771910524387,-1.2087925976845972
17.419141914191417,-1.120021899423785
17.452511917858452,-0.9366728411806312
17.485881921525486,-0.6864846854307693
17.519251925192517,-0.4040244241499404
17.55262192885955,-0.12187566734054
17.585991932526586,0.1349078096314005
17.61936193619362,0.350475522729076
