Timestamp,ECGValue,BPM
1004443,304,68
1004454,320,68
1004464,318,68
1004474,308,68
1004484,326,68
1004495,310,68
1004505,320,68
1004515,322,68
1004526,310,68
1004535,331,68
1004546,313,68
1004557,317,68
1004567,329,68
1004577,314,68
1004587,325,68
1004598,323,68
1004607,316,68
1004618,334,68
1004628,315,68
1004638,328,68
1004649,328,68
1004659,318,68
1004669,329,68
1004680,320,68
1004690,324,68
1004700,343,68
1004711,324,68
1004721,338,68
1004731,334,68
1004741,320,68
1004751,336,68
1004761,318,68
1004771,327,68
1004782,332,68
1004792,317,68
1004803,330,68
1004813,290,68
1004823,278,68
1004834,450,68
1004844,645,66
1004854,652,66
1004865,456,66
1004875,264,66
1004885,351,66
1004895,296,66
1004905,310,66
1004915,313,66
1004926,303,66
1004936,326,66
1004946,310,66
1004957,321,66
1004966,328,66
1004977,315,66
1004988,337,66
1004998,330,66
1005008,325,66
1005018,350,66
1005028,333,66
1005038,349,66
1005050,357,66
1005059,349,66
1005070,373,66
1005079,364,66
1005090,364,66
1005101,382,66
1005111,355,66
1005121,353,66
1005131,330,66
1005142,306,66
1005152,313,66
1005162,292,66
1005172,297,66
1005182,303,66
1005193,289,66
1005203,306,66
1005213,297,66
1005223,296,66
1005234,316,66
1005244,290,66
1005255,310,66
1005265,307,66
1005275,297,66
1005285,316,66
1005296,300,66
1005306,309,66
1005316,310,66
1005327,301,66
1005337,311,66
1005347,305,66
1005356,301,66
1005367,316,66
1005378,298,66
1005387,314,66
1005398,313,66
1005408,298,66
1005418,321,66
1005428,304,66
1005438,313,66
1005449,318,66
1005460,304,66
1005470,321,66
1005480,315,66
1005491,311,66
1005501,327,66
1005511,308,66
1005521,327,66
1005532,322,66
1005542,309,66
1005552,333,66
1005562,311,66
1005573,320,66
1005583,330,66
1005593,313,66
1005603,328,66
1005614,320,66
1005623,319,66
1005634,344,66
1005644,325,66
1005655,334,66
1005665,331,66
1005675,318,66
1005686,335,66
1005696,319,66
1005706,323,66
1005717,328,66
1005726,311,66
1005737,329,66
1005747,316,66
1005757,261,66
1005767,334,66
1005777,539,66
1005788,652,66
1005799,650,66
1005808,270,66
1005819,328,66
1005828,314,66
1005840,301,66
1005850,315,66
1005860,298,66
1005871,318,66
1005881,312,66
1005891,315,66
1005901,325,66
1005911,319,66
1005922,325,66
1005932,332,66
1005942,320,66
1005953,344,66
1005962,337,66
1005972,339,66
1005983,362,66
1005993,344,66
1006004,368,66
1006013,367,66
1006024,368,66
1006035,383,66
1006045,366,66
1006055,363,66
1006066,344,66
1006075,310,66
1006086,320,66
1006096,298,66
1006106,298,66
1006117,308,66
1006126,287,66
1006137,305,66
1006148,304,66
1006157,293,66
1006168,318,66
1006178,298,66
1006188,308,66
1006199,317,66
1006209,298,66
1006219,319,66
1006229,306,66
1006240,306,66
1006250,319,66
1006260,300,66
1006271,313,66
1006281,310,66
1006291,303,66
1006302,319,66
1006311,301,66
1006321,311,66
1006333,318,66
1006342,303,66
1006353,320,66
1006363,309,66
1006373,308,66
1006384,321,66
1006393,308,66
1006404,316,66
1006414,320,66
1006425,311,66
1006434,326,66
1006445,312,66
1006456,316,66
1006466,327,66
1006476,311,66
1006486,328,66
1006496,322,66
1006507,314,66
1006517,332,66
1006527,310,66
1006538,330,66
1006548,326,66
1006558,322,66
1006568,335,66
1006578,316,66
1006588,322,66
1006598,329,66
1006609,311,66
1006619,329,66
1006629,315,66
1006640,314,66
1006650,326,66
1006660,298,66
1006671,276,66
1006681,351,66
1006691,551,66
1006702,651,66
1006712,571,66
1006722,237,66
1006732,329,66
1006742,304,66
1006753,311,66
1006763,307,66
1006773,305,66
1006784,325,66
1006794,308,66
1006804,323,66
1006814,325,66
1006825,315,66
1006835,335,66
1006846,326,66
1006856,333,66
1006866,349,66
1006876,333,66
1006886,356,66
1006897,359,66
1006907,356,66
1006917,381,66
1006928,365,66
1006938,383,66
1006948,386,66
1006959,370,66
1006969,372,66
1006979,333,66
1006989,314,66
1006999,315,66
1007009,291,66
1007020,307,66
1007030,295,66
1007041,292,66
1007051,312,66
1007061,293,66
1007071,304,66
1007082,310,66
1007092,297,66
1007101,315,66
1007113,306,66
1007123,304,66
1007132,323,66
1007143,295,66
1007153,318,66
1007164,309,66
1007174,303,66
1007184,319,66
1007194,303,66
1007204,315,66
1007215,316,66
1007225,302,66
1007235,318,66
1007246,308,66
1007255,309,66
1007266,322,66
1007276,304,66
1007286,318,66
1007298,320,66
1007308,304,66
1007318,325,66
1007327,311,66
1007338,316,66
1007349,325,66
1007359,307,66
1007369,325,66
1007380,318,66
1007390,312,66
1007400,328,66
1007410,312,66
1007420,322,66
1007431,330,66
1007441,326,66
1007451,338,66
1007461,324,66
1007471,323,66
1007482,331,66
1007492,314,66
1007503,333,66
1007512,322,66
1007522,319,66
1007533,332,66
1007544,289,66
1007554,275,66
1007564,415,66
1007574,626,66
1007584,652,66
1007595,515,66
1007604,259,66
1007616,346,66
1007626,301,66
1007636,312,66
1007646,309,66
1007657,304,66
1007667,323,66
1007677,308,66
1007688,323,66
1007698,325,66
1007708,314,66
1007718,338,66
1007729,325,66
1007739,333,66
1007749,345,66
1007759,333,66
1007769,356,66
1007780,354,66
1007790,351,66
1007800,374,66
1007811,362,66
1007821,373,66
1007831,378,66
1007841,361,66
1007852,357,66
1007862,323,66
1007872,312,66
1007883,314,66
1007893,292,66
1007903,306,66
1007913,301,66
1007924,295,66
1007933,314,66
1007944,297,66
1007954,306,66
1007964,314,66
1007974,296,66
1007985,320,66
1007995,304,66
1008005,306,66
1008016,318,66
1008026,301,66
1008036,318,66
1008046,311,66
1008057,305,66
1008067,320,66
1008077,304,66
1008088,313,66
1008098,315,66
1008108,303,66
1008118,320,66
1008128,309,66
1008139,310,66
1008149,325,66
1008159,309,66
1008169,322,66
1008180,318,66
1008190,311,66
1008201,327,66
1008211,311,66
1008221,318,66
1008231,326,66
1008242,312,66
1008252,331,66
1008262,317,66
1008272,321,66
1008283,330,66
1008292,314,66
1008303,327,66
1008313,323,66
1008323,326,66
1008334,341,66
1008344,325,66
1008355,328,66
1008365,335,66
1008375,317,66
1008385,333,66
1008396,325,66
1008406,319,66
1008416,332,66
1008426,308,66
1008436,282,66
1008447,308,66
1008457,515,65
1008468,652,65
1008478,651,65
1008488,313,65
1008498,314,65
1008509,319,65
1008519,310,65
1008529,303,65
1008539,303,65
1008549,321,65
1008560,306,65
1008571,319,65
1008580,323,65
1008591,315,65
1008601,335,65
1008611,320,65
1008621,330,65
1008631,343,65
1008642,331,65
1008653,351,65
1008663,349,65
1008673,351,65
1008682,372,65
1008693,361,65
1008704,369,65
1008714,381,65
1008723,367,65
1008734,372,65
1008744,333,65
1008754,321,65
1008765,315,65
1008775,292,65
1008785,312,65
1008796,292,65
1008806,294,65
1008817,312,65
1008827,287,65
1008837,306,65
1008847,308,65
1008857,296,65
1008868,314,65
1008878,307,65
1008888,300,65
1008899,320,65
1008909,300,65
1008919,317,65
1008929,311,65
1008940,305,65
1008950,321,65
1008960,304,65
1008970,311,65
1008981,318,65
1008991,301,65
1009001,320,65
1009011,309,65
1009021,313,65
1009032,323,65
1009042,306,65
1009053,320,65
1009063,315,65
1009073,312,65
1009083,325,65
1009094,311,65
1009103,318,65
1009114,326,65
1009125,306,65
1009135,328,65
1009145,321,65
1009155,316,65
1009166,329,65
1009175,312,65
1009185,328,65
1009196,324,65
1009207,315,65
1009217,333,65
1009227,314,65
1009237,324,65
1009248,340,65
1009258,318,65
1009268,338,65
1009278,322,65
1009289,322,65
1009299,333,65
1009309,315,65
1009320,326,65
1009329,326,65
1009339,313,65
1009350,331,65
1009361,286,65
1009371,270,65
1009381,414,65
1009392,624,65
1009401,652,65
1009412,529,65
1009421,254,65
1009432,351,65
1009443,293,65
1009453,309,65
1009463,310,65
1009473,302,65
1009483,320,65
1009494,308,65
1009504,318,65
1009515,325,65
1009524,313,65
1009534,332,65
1009545,324,65
1009555,325,65
1009565,348,65
1009575,328,65
1009586,349,65
1009596,352,65
1009607,350,65
1009616,369,65
1009628,362,65
1009638,368,65
1009648,380,65
1009658,361,65
1009668,354,65
1009679,329,65
1009689,307,65
1009699,312,65
1009709,292,65
1009720,298,65
1009730,305,65
1009740,286,65
1009750,309,65
1009761,297,65
1009771,298,65
1009781,313,65
1009792,295,65
1009802,312,65
1009813,306,65
1009822,299,65
1009833,320,65
1009843,300,65
1009853,307,65
1009863,317,65
1009874,299,65
1009884,317,65
1009894,308,65
1009905,306,65
1009915,315,65
1009925,301,65
1009935,319,65
1009946,314,65
1009956,304,65
1009966,324,65
1009977,307,65
1009987,316,65
1009996,318,65
1010007,309,65
1010017,326,65
1010028,313,65
1010038,316,65
1010048,325,65
1010059,313,65
1010069,325,65
1010080,320,65
1010090,317,65
1010100,332,65
1010110,313,65
1010120,323,65
1010130,329,65
1010141,316,65
1010151,334,65
1010161,320,65
1010172,323,65
1010181,345,65
1010192,329,65
1010202,335,65
1010213,337,65
1010223,324,65
1010233,335,65
1010244,321,65
1010254,324,65
1010264,330,65
1010274,313,65
1010284,332,65
1010294,317,65
1010305,302,65
1010315,276,65
1010326,351,65
1010336,595,65
1010346,652,65
1010357,620,65
1010367,272,65
1010377,326,65
1010387,316,65
1010397,312,65
1010408,301,65
1010418,320,65
1010429,308,65
1010439,312,65
1010449,327,65
1010459,311,65
1010469,327,65
1010479,330,65
1010490,318,65
1010500,341,65
1010510,332,65
1010521,335,65
1010531,352,65
1010541,342,65
1010551,365,65
1010562,362,65
1010571,366,65
1010581,377,65
1010592,369,65
1010602,374,65
1010613,361,65
1010623,327,65
1010634,327,65
1010644,301,65
1010654,299,65
1010664,308,65
1010675,294,65
1010685,308,65
1010695,301,65
1010705,299,65
1010716,314,65
1010725,297,65
1010736,310,65
1010746,313,65
1010757,301,65
1010767,320,65
1010777,305,65
1010788,309,65
1010798,318,65
1010808,303,65
1010818,318,65
1010828,311,65
1010839,303,65
1010849,321,65
1010859,302,65
1010870,313,65
1010880,318,65
1010890,303,65
1010901,322,65
1010911,311,65
1010921,309,65
1010931,325,65
1010942,302,65
1010952,324,65
1010962,314,65
1010972,308,65
1010982,331,65
1010993,308,65
1011003,323,65
1011013,325,65
1011023,311,65
1011033,333,65
1011044,315,65
1011054,322,65
1011065,329,65
1011075,313,65
1011085,330,65
1011096,326,65
1011105,318,65
1011115,336,65
1011126,329,65
1011136,335,65
1011147,338,65
1011157,323,65
1011167,340,65
1011177,325,65
1011188,321,65
1011198,336,65
1011209,311,65
1011219,330,65
1011229,324,65
1011239,315,65
1011249,320,65
1011260,262,65
1011270,330,65
1011280,570,64
1011291,652,64
1011301,649,64
1011311,280,64
1011322,319,64
1011331,331,64
1011342,296,64
1011352,312,64
1011362,312,64
1011372,305,64
1011383,322,64
1011393,309,64
1011403,319,64
1011414,330,64
1011424,315,64
1011434,336,64
1011445,331,64
1011455,329,64
1011465,350,64
1011475,334,64
1011486,351,64
1011496,363,64
1011506,352,64
1011517,377,64
1011527,366,64
1011537,372,64
1011547,380,64
1011557,352,64
1011568,343,64
1011578,318,64
1011588,303,64
1011599,311,64
1011608,289,64
1011619,304,64
1011629,300,64
1011639,292,64
1011650,311,64
1011660,296,64
1011670,302,64
1011681,313,64
1011691,296,64
1011701,316,64
1011712,304,64
1011722,306,64
1011732,316,64
1011742,301,64
1011753,312,64
1011762,313,64
1011772,300,64
1011783,318,64
1011793,304,64
1011804,310,64
1011814,313,64
1011824,303,64
1011834,315,64
1011845,314,64
1011855,309,64
1011866,323,64
1011876,306,64
1011886,315,64
1011896,322,64
1011907,308,64
1011917,325,64
1011927,313,64
1011937,319,64
1011947,326,64
1011957,313,64
1011967,323,64
1011978,322,64
1011988,311,64
1011999,329,64
1012009,316,64
1012020,323,64
1012029,327,64
1012039,314,64
1012050,332,64
1012060,323,64
1012070,321,64
1012081,345,64
1012091,327,64
1012101,340,64
1012112,334,64
1012122,323,64
1012132,338,64
1012142,320,64
1012153,324,64
1012163,331,64
1012173,312,64
1012184,338,64
1012194,313,64
1012204,314,64
1012214,282,64
1012225,296,64
1012235,523,64
1012245,652,64
1012256,651,64
1012265,332,64
1012275,298,64
1012286,329,64
1012297,310,64
1012307,296,64
1012317,317,64
1012327,308,64
1012337,310,64
1012348,327,64
1012358,310,64
1012369,325,64
1012379,328,64
1012389,321,64
1012399,339,64
1012410,325,64
1012419,338,64
1012429,347,64
1012440,340,64
1012450,364,64
1012461,359,64
1012471,361,64
1012481,382,64
1012491,369,64
1012502,372,64
1012511,370,64
1012523,336,64
1012533,335,64
1012542,307,64
1012553,302,64
1012564,309,64
1012574,291,64
1012584,309,64
1012594,299,64
1012604,298,64
1012614,314,64
1012625,296,64
1012636,308,64
1012646,311,64
1012656,299,64
1012666,320,64
1012676,306,64
1012687,308,64
1012697,319,64
1012707,299,64
1012718,316,64
1012728,311,64
1012738,302,64
1012747,320,64
1012759,300,64
1012769,313,64
1012778,316,64
1012789,302,64
1012800,322,64
1012810,306,64
1012820,314,64
1012830,321,64
1012840,306,64
1012851,322,64
1012861,318,64
1012871,312,64
1012881,328,64
1012892,313,64
1012902,318,64
1012912,327,64
1012923,310,64
1012932,332,64
1012943,316,64
1012954,320,64
1012963,331,64
1012974,313,64
1012984,328,64
1012995,323,64
1013005,319,64
1013015,335,64
1013025,319,64
1013035,335,64
1013046,343,64
1013056,321,64
1013066,342,64
1013076,331,64
1013087,323,64
1013097,337,64
1013108,317,64
1013118,330,64
1013128,326,64
1013139,316,64
1013149,334,64
1013159,319,64
1013169,275,64
1013179,300,64
1013190,479,64
1013200,651,64
1013210,652,64
1013220,375,64
1013231,302,64
1013241,327,64
1013251,313,64
1013262,311,64
1013272,304,64
1013282,325,64
1013292,308,64
1013302,320,64
1013313,327,64
1013323,313,64
1013333,333,64
1013344,331,64
1013354,322,64
1013365,345,64
1013375,330,64
1013384,350,64
1013395,351,64
1013406,346,64
1013416,371,64
1013425,366,64
1013435,365,64
1013447,383,64
1013457,365,64
1013467,377,64
1013477,347,64
1013487,322,64
1013497,326,64
1013508,296,64
1013518,304,64
1013529,307,64
1013539,290,64
1013549,309,64
1013559,297,64
1013569,302,64
1013580,311,64
1013589,294,64
1013601,315,64
1013611,306,64
1013621,300,64
1013631,318,64
1013641,301,64
1013652,312,64
1013662,317,64
1013672,305,64
1013683,315,64
1013693,306,64
1013702,307,64
1013713,314,64
1013724,298,64
1013734,314,64
1013744,310,64
1013754,301,64
1013765,320,64
1013775,304,64
1013785,312,64
1013796,319,64
1013806,302,64
1013816,323,64
1013826,309,64
1013836,311,64
1013847,324,64
1013856,308,64
1013867,322,64
1013877,316,64
1013888,311,64
1013898,329,64
1013908,312,64
1013918,322,64
1013929,326,64
1013939,311,64
1013948,331,64
1013960,319,64
1013969,320,64
1013980,336,64
1013991,326,64
1014001,338,64
1014011,337,64
1014021,321,64
1014032,341,64
1014042,320,64
1014052,326,64
1014062,331,64
1014072,315,64
1014082,329,64
1014093,320,64
1014103,319,64
1014113,318,64
1014124,262,64
1014134,351,64
1014144,578,64
1014154,652,64
1014164,641,64
1014175,261,64
1014185,331,64
1014195,327,64
1014205,298,64
1014216,321,64
1014226,307,64
1014237,312,64
1014247,328,64
1014258,313,64
1014268,324,64
1014277,330,64
1014288,322,64
1014298,339,64
1014308,327,64
1014319,338,64
1014329,350,64
1014340,337,64
1014350,362,64
1014360,359,64
1014370,357,64
1014380,375,64
1014391,362,64
1014400,382,64
1014411,377,64
1014422,352,64
1014432,348,64
1014442,315,64
1014452,306,64
1014463,309,64
1014473,285,64
1014483,306,64
1014493,298,64
1014503,291,64
1014514,309,64
1014524,294,64
1014534,304,64
1014545,309,64
1014555,296,64
1014565,313,64
1014576,302,64
1014585,303,64
1014596,314,64
1014606,295,64
1014616,315,64
1014627,306,64
1014636,298,64
1014647,311,64
1014658,295,64
1014667,307,64
1014678,308,64
1014689,292,64
1014699,313,64
1014709,294,64
1014719,300,64
1014730,309,64
1014740,294,64
1014750,310,64
1014761,303,64
1014770,299,64
1014781,312,64
1014791,297,64
1014801,308,64
1014812,311,64
1014822,294,64
1014832,316,64
1014842,302,64
1014852,305,64
1014863,316,64
1014873,294,64
1014884,314,64
1014894,311,64
1014904,310,64
1014914,320,64
1014925,302,64
1014935,312,64
1014945,311,64
1014955,290,64
1014966,309,64
1014976,298,64
1014986,294,64
1014996,309,64
1015007,288,64
1015016,293,64
1015028,259,64
1015037,311,64
1015048,541,64
1015058,648,64
1015068,551,64
1015079,230,64
1015089,287,64
1015099,310,64
1015109,284,64
1015119,294,64
1015129,303,64
1015140,290,64
1015150,308,64
1015161,306,64
1015171,305,64
1015181,318,64
1015192,311,64
1015202,322,64
1015212,339,64
1015222,318,64
1015232,347,64
1015243,344,64
1015253,350,64
1015263,375,64
1015274,355,64
1015284,380,64
1015294,384,64
1015304,376,64
1015314,392,64
1015325,359,64
1015335,341,64
1015346,332,64
1015355,302,64
1015365,310,64
1015376,303,64
1015387,296,64
1015397,308,64
1015407,298,64
1015417,310,64
1015428,312,64
1015438,299,64
1015448,322,64
1015459,305,64
1015469,317,64
1015479,327,64
1015488,306,64
1015499,327,64
1015510,317,64
1015520,316,64
1015530,324,64
1015541,309,64
1015551,325,64
1015561,322,64
1015572,308,64
1015581,328,64
1015591,315,64
1015602,318,64
1015612,327,64
1015622,310,64
1015633,325,64
1015643,323,64
1015653,313,64
1015663,333,64
1015673,314,64
1015683,323,64
1015695,331,64
1015705,313,64
1015715,333,64
1015725,332,64
1015735,330,64
1015745,339,64
1015756,320,64
1015766,333,64
1015777,330,64
1015787,322,64
1015797,340,64
1015807,317,64
1015818,327,64
1015828,320,64
1015838,267,64
1015849,362,64
1015859,573,65
1015869,651,65
1015879,608,65
1015889,237,65
1015900,335,65
1015910,323,65
1015920,301,65
1015931,325,65
1015941,309,65
1015951,319,65
1015962,327,65
1015971,314,65
1015981,334,65
1015992,327,65
1016002,329,65
1016013,345,65
1016023,331,65
1016033,347,65
1016043,354,65
1016053,349,65
1016064,371,65
1016074,366,65
1016084,375,65
1016094,386,65
1016105,371,65
1016115,393,65
1016126,377,65
1016135,354,65
1016146,347,65
1016157,313,65
1016166,311,65
1016177,308,65
1016187,301,65
1016197,310,65
1016207,301,65
1016218,303,65
1016228,310,65
1016239,303,65
1016249,313,65
1016259,311,65
1016269,306,65
1016280,322,65
1016290,306,65
1016300,316,65
1016311,320,65
1016321,309,65
1016331,324,65
1016341,311,65
1016351,315,65
1016362,322,65
1016372,307,65
1016382,322,65
1016393,315,65
1016402,312,65
1016413,323,65
1016424,313,65
1016433,320,65
1016444,321,65
1016454,312,65
1016465,328,65
1016475,315,65
1016484,319,65
1016495,331,65
1016506,313,65
1016515,326,65
1016525,321,65
1016536,327,65
1016546,340,65
1016557,322,65
1016567,331,65
1016578,329,65
1016587,315,65
1016598,334,65
1016608,319,65
1016619,321,65
1016629,331,65
1016639,315,65
1016649,300,65
1016660,274,65
1016670,417,65
1016680,650,65
1016690,652,65
1016701,524,65
1016711,273,65
1016721,330,65
1016731,317,65
1016741,303,65
1016751,305,65
1016762,319,65
1016772,304,65
1016783,320,65
1016793,322,65
1016803,313,65
1016813,331,65
1016824,319,65
1016834,328,65
1016844,337,65
1016854,326,65
1016864,347,65
1016874,342,65
1016885,345,65
1016895,366,65
1016906,357,65
1016916,367,65
1016926,371,65
1016936,366,65
1016947,375,65
1016957,336,65
1016967,327,65
1016977,318,65
1016987,294,65
1016998,306,65
1017008,299,65
1017018,289,65
1017029,309,65
1017039,293,65
1017050,305,65
1017060,305,65
1017070,298,65
1017081,313,65
1017091,301,65
1017101,306,65
1017111,314,65
1017121,297,65
1017132,318,65
1017141,306,65
1017152,307,65
1017163,315,65
1017173,300,65
1017183,314,65
1017192,310,65
1017203,304,65
1017214,318,65
1017223,305,65
1017235,312,65
1017245,318,65
1017255,303,65
1017265,322,65
1017275,316,65
1017285,309,65
1017296,326,65
1017306,307,65
1017317,322,65
1017326,322,65
1017337,308,65
1017347,325,65
1017358,311,65
1017368,317,65
1017378,337,65
1017389,317,65
1017399,329,65
1017409,322,65
1017418,316,65
1017429,330,65
1017440,311,65
1017450,321,65
1017460,324,65
1017470,314,65
1017480,319,65
1017491,270,65
1017501,291,65
1017512,501,66
1017521,651,66
1017532,652,66
1017542,373,66
1017553,285,66
1017562,341,66
1017573,294,66
1017583,305,66
1017593,311,66
1017604,299,66
1017613,320,66
1017625,312,66
1017635,313,66
1017645,329,66
1017655,313,66
1017665,330,66
1017675,330,66
1017686,323,66
1017696,346,66
1017707,335,66
1017717,347,66
1017727,358,66
1017737,352,66
1017748,371,66
1017758,367,66
1017768,370,66
1017779,383,66
1017789,353,66
1017799,345,66
1017809,324,66
1017819,300,66
1017830,313,66
1017840,294,66
1017850,305,66
1017861,303,66
1017871,293,66
1017881,310,66
1017892,299,66
1017902,303,66
1017912,316,66
1017922,295,66
1017932,312,66
1017942,310,66
1017953,303,66
1017962,317,66
1017974,304,66
1017984,310,66
1017994,317,66
1018004,304,66
1018014,319,66
1018025,310,66
1018035,303,66
1018045,320,66
1018056,304,66
1018066,314,66
1018076,315,66
1018086,306,66
1018097,324,66
1018107,306,66
1018117,317,66
1018127,324,66
1018137,308,66
1018148,328,66
1018158,316,66
1018168,315,66
1018179,330,66
1018189,311,66
1018199,327,66
1018210,322,66
1018220,313,66
1018230,331,66
1018241,320,66
1018251,323,66
1018261,330,66
1018271,316,66
1018282,331,66
1018292,326,66
1018302,331,66
1018312,343,66
1018322,326,66
1018333,331,66
1018343,332,66
1018353,318,66
1018364,335,66
1018374,324,66
1018384,320,66
1018395,336,66
1018404,300,66
1018415,275,66
1018425,346,66
1018435,573,66
1018446,652,66
1018456,649,66
1018466,282,66
1018477,333,66
1018487,310,66
1018497,312,66
1018507,304,66
1018518,306,66
1018528,318,66
1018538,305,66
1018548,323,66
1018559,325,66
1018569,314,66
1018579,333,66
1018589,318,66
1018600,333,66
1018610,339,66
1018620,328,66
1018630,354,66
1018640,345,66
1018651,353,66
1018661,370,66
1018671,354,66
1018682,375,66
1018692,375,66
1018702,365,66
1018713,369,66
1018723,332,66
1018733,324,66
1018743,312,66
1018753,292,66
1018764,311,66
1018774,294,66
1018784,297,66
1018795,310,66
1018805,295,66
1018815,310,66
1018825,305,66
1018835,299,66
1018846,315,66
1018856,304,66
1018867,306,66
1018877,316,66
1018887,299,66
1018897,319,66
1018907,307,66
1018918,306,66
1018928,318,66
1018938,302,66
1018949,314,66
1018958,312,66
1018969,306,66
1018980,316,66
1018990,307,66
1019000,311,66
1019010,320,66
1019021,303,66
1019031,322,66
1019040,312,66
1019051,311,66
1019061,328,66
1019071,305,66
1019082,322,66
1019093,323,66
1019103,313,66
1019113,327,66
1019123,313,66
1019133,318,66
1019143,328,66
1019154,308,66
1019164,329,66
1019174,319,66
1019184,316,66
1019195,332,66
1019205,316,66
1019216,323,66
1019226,326,66
1019236,317,66
1019247,336,66
1019257,331,66
1019267,328,66
1019277,339,66
1019287,315,66
1019297,333,66
1019308,326,66
1019318,317,66
1019329,333,66
1019339,316,66
1019349,323,66
1019359,323,66
1019370,268,66
1019380,307,66
1019390,513,66
1019400,652,66
1019411,652,66
1019421,344,66
1019431,306,66
1019441,332,66
1019452,293,66
1019462,314,66
1019472,300,66
1019483,313,66
1019493,316,66
1019503,307,66
1019513,326,66
1019523,315,66
1019534,318,66
1019544,336,66
1019554,317,66
1019565,336,66
1019575,336,66
1019585,335,66
1019596,355,66
1019606,348,66
1019615,362,66
1019625,370,66
1019637,360,66
1019646,382,66
1019656,374,66
1019667,363,66
1019678,354,66
1019688,313,66
1019697,317,66
1019708,302,66
1019718,289,66
1019729,307,66
1019738,292,66
1019750,297,66
1019760,306,66
1019770,288,66
1019780,310,66
1019790,298,66
1019801,297,66
1019811,312,66
1019821,296,66
1019832,309,66
1019842,305,66
1019852,296,66
1019862,311,66
1019873,296,66
1019883,302,66
1019893,313,66
1019903,297,66
1019914,310,66
1019923,301,66
1019934,302,66
1019945,316,66
1019955,293,66
1019965,311,66
1019974,307,66
1019985,299,66
1019996,315,66
1020006,297,66
1020016,303,66
1020027,315,66
1020037,300,66
1020047,317,66
1020057,309,66
1020068,304,66
1020078,323,66
1020088,305,66
1020099,321,66
1020108,319,66
1020119,305,66
1020130,325,66
1020139,315,66
1020150,318,66
1020160,337,66
1020170,316,66
1020180,330,66
1020190,322,66
1020201,316,66
1020212,328,66
1020222,313,66
1020232,323,66
1020241,322,66
1020253,317,66
1020263,325,66
1020273,279,66
1020283,303,66
1020293,500,66
1020304,648,66
1020314,647,66
1020324,303,66
1020334,284,66
1020345,343,66
1020355,300,66
1020366,315,66
1020376,320,66
1020386,309,66
1020396,331,66
1020406,322,66
1020416,323,66
1020426,341,66
1020437,325,66
1020447,341,66
1020457,338,66
1020468,339,66
1020478,360,66
1020488,345,66
1020498,368,66
1020508,374,66
1020519,366,66
1020529,394,66
1020540,376,66
1020550,388,66
1020560,399,66
1020571,367,66
1020580,355,66
1020591,330,66
1020601,309,66
1020611,314,66
1020622,296,66
1020632,303,66
1020643,307,66
1020653,294,66
1020663,311,66
1020674,302,66
1020684,301,66
1020694,318,66
1020704,297,66
1020714,318,66
1020725,311,66
1020734,305,66
1020745,322,66
1020756,309,66
1020766,312,66
1020775,318,66
1020786,304,66
1020796,317,66
1020807,311,66
1020817,308,66
1020827,323,66
1020838,306,66
1020848,313,66
1020858,320,66
1020868,305,66
1020879,325,66
1020889,309,66
1020899,315,66
1020909,324,66
1020920,311,66
1020930,322,66
1020940,319,66
1020951,317,66
1020960,330,66
1020971,310,66
1020980,328,66
1020992,323,66
1021002,313,66
1021012,332,66
1021023,316,66
1021033,330,66
1021042,338,66
1021052,320,66
1021064,336,66
1021073,322,66
1021084,320,66
1021094,334,66
1021104,316,66
1021114,325,66
1021125,325,66
1021135,308,66
1021145,289,66
1021156,298,66
1021166,515,67
1021176,652,67
1021187,651,67
1021197,317,67
1021207,300,67
1021217,321,67
1021228,315,67
1021237,291,67
1021248,313,67
1021258,317,67
1021268,304,67
1021279,324,67
1021289,314,67
1021299,320,67
1021310,329,67
1021320,318,67
1021330,333,67
1021341,333,67
1021351,331,67
1021361,348,67
1021371,340,67
1021382,355,67
1021392,362,67
1021402,358,67
1021413,376,67
1021423,369,67
1021433,371,67
1021443,370,67
1021454,329,67
1021464,328,67
1021474,309,67
1021484,297,67
1021495,306,67
1021505,291,67
1021515,301,67
1021526,302,67
1021535,292,67
1021546,309,67
1021556,297,67
1021567,301,67
1021576,314,67
1021587,298,67
1021597,311,67
1021607,310,67
1021618,304,67
1021628,319,67
1021638,303,67
1021649,312,67
1021659,316,67
1021669,301,67
1021679,322,67
1021689,307,67
1021700,309,67
1021710,319,67
1021720,305,67
1021730,320,67
1021741,313,67
1021751,308,67
1021762,326,67
1021772,309,67
1021782,317,67
1021792,324,67
1021802,309,67
1021813,327,67
1021823,317,67
1021833,315,67
1021844,330,67
1021854,310,67
1021864,328,67
1021874,322,67
1021884,315,67
1021894,332,67
1021906,316,67
1021915,335,67
1021926,338,67
1021936,323,67
1021946,334,67
1021957,324,67
1021966,322,67
1021977,334,67
1021987,316,67
1021998,328,67
1022008,330,67
1022018,307,67
1022028,287,67
1022039,299,67
1022049,521,67
1022059,652,67
1022069,652,67
1022080,350,67
1022090,306,67
1022100,327,67
1022110,313,67
1022121,298,67
1022131,317,67
1022141,314,67
1022152,308,67
1022162,328,67
1022172,315,67
1022182,324,67
1022193,334,67
1022202,322,67
1022212,338,67
1022223,336,67
1022233,336,67
1022244,352,67
1022254,343,67
1022264,360,67
1022274,367,67
1022285,359,67
1022295,381,67
1022305,371,67
1022316,377,67
1022325,372,67
1022336,337,67
1022347,335,67
1022357,311,67
1022367,300,67
1022377,310,67
1022387,295,67
1022398,303,67
1022408,307,67
1022418,294,67
1022429,312,67
1022439,303,67
1022449,305,67
1022460,316,67
1022469,302,67
1022479,311,67
1022490,312,67
1022500,303,67
1022511,321,67
1022521,303,67
1022532,315,67
1022542,317,67
1022551,302,67
1022562,321,67
1022572,310,67
1022583,312,67
1022593,322,67
1022603,304,67
1022614,320,67
1022623,315,67
1022634,308,67
1022644,325,67
1022654,306,67
1022665,320,67
1022675,323,67
1022685,308,67
1022696,328,67
1022706,317,67
1022716,316,67
1022727,330,67
1022737,311,67
1022747,326,67
1022757,325,67
1022767,316,67
1022778,331,67
1022788,318,67
1022798,322,67
1022808,331,67
1022819,315,67
1022829,337,67
1022839,333,67
1022849,327,67
1022860,339,67
1022870,316,67
1022880,332,67
1022890,326,67
1022901,318,67
1022912,335,67
1022921,317,67
1022931,323,67
1022942,318,67
1022953,260,67
1022963,341,67
1022973,559,68
1022983,652,68
1022993,651,68
1023003,292,68
1023014,325,68
1023023,327,68
1023034,298,68
1023044,313,68
1023055,302,68
1023065,310,68
1023076,319,68
1023086,307,68
1023096,326,68
1023106,320,68
1023117,316,68
1023127,337,68
1023136,322,68
1023147,334,68
1023157,338,68
1023168,333,68
1023178,357,68
1023189,347,68
1023199,359,68
1023209,372,68
1023219,359,68
1023229,381,68
1023240,378,68
1023250,353,68
1023260,351,68
1023270,312,68
1023281,312,68
1023290,306,68
1023301,291,68
1023312,310,68
1023321,296,68
1023332,297,68
1023343,313,68
1023352,291,68
1023363,312,68
1023373,307,68
1023384,300,68
1023394,319,68
1023404,299,68
1023413,313,68
1023425,314,68
1023434,303,68
1023445,319,68
1023455,306,68
1023466,308,68
1023476,321,68
1023486,301,68
1023497,317,68
1023507,315,68
1023517,302,68
1023527,324,68
1023537,303,68
1023548,317,68
1023558,315,68
1023569,305,68
1023579,324,68
1023589,312,68
1023599,314,68
1023609,326,68
1023620,310,68
1023630,325,68
1023640,323,68
1023650,311,68
1023661,330,68
1023670,315,68
1023681,327,68
1023692,326,68
1023701,314,68
1023712,335,68
1023722,322,68
1023732,320,68
1023742,334,68
1023753,317,68
1023763,335,68
1023773,338,68
1023784,326,68
1023794,342,68
1023804,323,68
1023814,332,68
1023825,332,68
1023835,315,68
1023845,331,68
1023856,320,68
1023866,319,68
1023875,328,68
1023887,314,68
1023897,291,68
1023906,276,68
1023917,440,68
1023927,651,67
1023937,652,67
1023948,452,67
1023958,276,67
1023968,327,67
1023979,313,67
1023989,305,67
1023999,303,67
1024009,316,67
1024020,303,67
1024030,318,67
1024041,320,67
1024050,307,67
1024060,331,67
1024071,317,67
1024081,326,67
1024092,337,67
1024102,325,67
1024112,348,67
1024122,342,67
1024133,344,67
1024142,368,67
1024154,356,67
1024164,371,67
1024174,376,67
1024184,365,67
1024194,381,67
1024204,341,67
1024215,322,67
1024225,316,67
1024236,293,67
1024246,300,67
1024256,290,67
1024266,287,67
1024277,305,67
1024287,279,67
1024297,297,67
1024307,304,67
1024318,288,67
1024327,306,67
1024338,294,67
1024348,298,67
1024359,307,67
1024369,286,67
1024379,308,67
1024390,301,67
1024400,293,67
1024410,313,67
1024420,288,67
1024431,302,67
1024441,306,67
1024451,292,67
1024461,308,67
1024472,296,67
1024481,299,67
1024492,307,67
1024503,292,67
1024512,314,67
1024523,300,67
1024533,297,67
1024544,318,67
1024554,297,67
1024564,312,67
1024574,315,67
1024584,301,67
1024595,318,67
1024605,312,67
1024615,305,67
1024626,324,67
1024636,306,67
1024646,324,67
1024657,328,67
1024667,318,67
1024677,337,67
1024687,318,67
1024697,324,67
1024708,325,67
1024717,313,67
1024728,333,67
1024739,317,67
1024748,315,67
1024759,331,67
1024769,304,67
1024779,289,67
1024790,354,67
1024800,556,67
1024811,650,67
1024821,562,67
1024831,242,67
1024841,335,67
1024851,312,67
1024862,315,67
1024871,316,67
1024882,315,67
1024893,334,67
1024903,316,67
1024913,330,67
1024924,334,67
1024934,326,67
1024944,347,67
1024953,336,67
1024964,344,67
1024974,354,67
1024985,340,67
1024995,367,67
1025005,363,67
1025016,366,67
1025025,387,67
1025036,367,67
1025047,391,67
1025057,390,67
1025067,374,67
1025078,374,67
1025088,336,67
1025098,315,67
1025108,312,67
1025118,289,67
1025129,302,67
1025138,296,67
1025149,289,67
1025160,307,67
1025170,287,67
1025180,304,67
1025190,306,67
1025201,296,67
1025211,312,67
1025221,304,67
1025231,305,67
1025241,320,67
1025252,298,67
1025262,316,67
1025272,309,67
1025283,305,67
1025293,317,67
1025303,302,67
1025314,312,67
1025324,312,67
1025334,300,67
1025344,318,67
1025354,309,67
1025365,306,67
1025375,323,67
1025385,300,67
1025396,319,67
1025406,315,67
1025415,309,67
1025426,325,67
1025437,306,67
1025446,319,67
1025457,320,67
1025467,308,67
1025477,324,67
1025488,316,67
1025498,314,67
1025508,326,67
1025519,309,67
1025529,325,67
1025539,319,67
1025550,319,67
1025560,340,67
1025570,322,67
1025581,330,67
1025591,330,67
1025601,312,67
1025611,332,67
1025621,317,67
1025632,316,67
1025642,325,67
1025652,308,67
1025663,302,67
1025673,264,67
1025683,385,67
1025693,631,66
1025703,652,66
1025713,582,66
1025724,262,66
1025734,323,66
1025744,314,66
1025755,296,66
1025765,295,66
1025776,311,66
1025786,297,66
1025796,313,66
1025806,312,66
1025817,307,66
1025827,325,66
1025836,311,66
1025847,325,66
1025858,328,66
1025868,319,66
1025878,339,66
1025888,337,66
1025898,339,66
1025908,360,66
1025919,345,66
1025930,367,66
1025940,366,66
1025950,357,66
1025960,374,66
1025971,346,66
1025981,331,66
1025991,318,66
1026001,292,66
1026011,303,66
1026021,295,66
1026032,289,66
1026042,306,66
1026052,290,66
1026063,301,66
1026073,308,66
1026083,293,66
1026093,314,66
1026104,301,66
1026114,305,66
1026124,315,66
1026135,299,66
1026145,317,66
1026155,310,66
1026166,304,66
1026176,319,66
1026186,306,66
1026196,314,66
1026206,316,66
1026217,306,66
1026227,319,66
1026237,312,66
1026247,310,66
1026258,322,66
1026268,308,66
1026278,319,66
1026289,317,66
1026298,310,66
1026308,326,66
1026319,309,66
1026329,323,66
1026340,328,66
1026349,308,66
1026360,330,66
1026371,318,66
1026381,320,66
1026391,334,66
1026401,314,66
1026411,327,66
1026422,325,66
1026433,316,66
1026443,340,66
1026453,328,66
1026463,332,66
1026474,336,66
1026484,317,66
1026493,338,66
1026504,322,66
1026514,325,66
1026525,335,66
1026535,315,66
1026545,328,66
1026556,309,66
1026566,262,66
1026575,367,66
1026587,581,66
1026596,652,66
1026607,649,66
1026617,275,66
1026627,338,66
1026638,314,66
1026648,299,66
1026659,315,66
1026668,304,66
1026679,313,66
1026689,316,66
1026699,312,66
1026710,331,66
1026720,316,66
1026730,324,66
1026740,336,66
1026750,320,66
1026761,342,66
1026771,337,66
1026781,342,66
1026792,355,66
1026802,347,66
1026811,366,66
1026822,365,66
1026832,362,66
1026843,382,66
1026853,364,66
1026864,360,66
1026874,346,66
1026884,309,66
1026894,316,66
1026904,298,66
1026914,294,66
1026925,306,66
1026935,287,66
1026945,301,66
1026956,303,66
1026965,295,66
1026977,311,66
1026987,300,66
1026997,300,66
1027007,315,66
1027017,295,66
1027028,314,66
1027037,309,66
1027049,302,66
1027059,322,66
1027069,300,66
1027079,314,66
1027089,313,66
1027099,305,66
1027110,321,66
1027119,307,66
1027130,312,66
1027141,318,66
1027151,308,66
1027161,321,66
1027171,315,66
1027182,314,66
1027192,322,66
1027202,309,66
1027212,324,66
1027222,318,66
1027233,314,66
1027243,330,66
1027253,317,66
1027263,316,66
1027274,328,66
1027284,311,66
1027295,323,66
1027305,332,66
1027316,323,66
1027325,337,66
1027335,320,66
1027346,328,66
1027356,330,66
1027366,316,66
1027377,332,66
1027387,325,66
1027397,317,66
1027407,332,66
1027418,289,66
1027428,286,66
1027438,429,66
1027449,636,66
1027459,652,66
1027469,470,66
1027479,262,66
1027489,346,66
1027500,298,66
1027510,317,66
1027521,307,66
1027531,312,66
1027540,324,66
1027551,307,66
1027562,327,66
1027572,325,66
1027582,320,66
1027592,336,66
1027603,325,66
1027613,337,66
1027623,347,66
1027633,332,66
1027644,356,66
1027654,354,66
1027664,358,66
1027674,377,66
1027685,364,66
1027695,383,66
1027705,380,66
1027716,365,66
1027726,361,66
1027736,324,66
1027745,310,66
1027757,312,66
1027767,288,66
1027777,304,66
1027788,296,66
1027798,296,66
1027807,302,66
1027818,291,66
1027828,304,66
1027839,306,66
1027849,297,66
1027859,314,66
1027869,300,66
1027879,308,66
1027890,314,66
1027900,296,66
1027910,315,66
1027921,310,66
1027931,304,66
1027941,318,66
1027951,301,66
1027961,310,66
1027972,317,66
1027982,300,66
1027992,324,66
1028003,304,66
1028013,310,66
1028023,318,66
1028033,304,66
1028044,316,66
1028055,319,66
1028065,301,66
1028074,333,66
1028085,313,66
1028095,325,66
1028105,324,66
1028116,307,66
1028126,330,66
1028136,313,66
1028146,316,66
1028157,327,66
1028167,305,66
1028177,324,66
1028188,301,66
1028197,267,66
1028209,385,66
1028219,585,68
1028229,651,68
1028239,514,68
1028249,227,68
1028259,338,68
1028270,310,68
1028280,303,68
1028291,316,68
1028301,304,68
1028311,324,68
1028320,319,68
1028331,316,68
1028341,332,68
1028352,320,68
1028362,333,68
1028373,336,68
1028382,328,68
1028393,349,68
1028403,340,68
1028414,348,68
1028424,367,68
1028433,356,68
1028444,374,68
1028455,378,68
1028465,376,68
1028475,390,68
1028485,367,68
1028495,350,68
1028506,335,68
1028516,302,68
1028527,307,68
1028537,296,68
1028547,290,68
1028558,304,68
1028568,284,68
1028578,299,68
1028588,301,68
1028598,290,68
1028608,308,68
1028618,297,68
1028629,304,68
1028640,311,68
1028650,297,68
1028660,317,68
1028670,304,68
1028681,305,68
1028691,312,68
1028701,301,68
1028711,308,68
1028721,308,68
1028732,297,68
1028742,318,68
1028752,302,68
1028762,306,68
1028773,318,68
1028783,301,68
1028794,319,68
1028804,310,68
1028813,305,68
1028824,324,68
1028834,302,68
1028844,318,68
1028855,316,68
1028865,307,68
1028875,335,68
1028886,318,68
1028896,323,68
1028906,323,68
1028916,309,68
1028927,327,68
1028937,314,68
1028948,312,68
1028957,328,68
1028968,311,68
1028978,315,68
1028989,280,68
1028999,273,68
1029009,490,68
1029019,651,68
1029030,652,68
1029040,393,68
1029050,277,68
1029061,337,68
1029071,299,68
1029081,296,68
1029091,313,68
1029101,299,68
1029112,312,68
1029122,319,68
1029132,303,68
1029143,326,68
1029152,317,68
1029163,318,68
1029173,338,68
1029183,320,68
1029194,340,68
1029204,341,68
1029214,340,68
1029225,359,68
1029235,347,68
1029245,366,68
1029256,371,68
1029265,361,68
1029275,382,68
1029286,356,68
1029297,340,68
1029307,333,68
1029317,304,68
1029327,310,68
1029336,305,68
1029348,294,68
1029357,311,68
1029368,298,68
1029378,302,68
1029388,312,68
1029399,298,68
1029409,316,68
1029420,307,68
1029430,306,68
1029440,320,68
1029450,302,68
1029460,316,68
1029471,313,68
1029481,302,68
1029491,323,68
1029502,305,68
1029512,316,68
1029522,318,68
1029533,305,68
1029542,321,68
1029553,313,68
1029564,310,68
1029573,324,68
1029584,305,68
1029593,320,68
1029604,320,68
1029615,310,68
1029625,323,68
1029635,312,68
1029645,320,68
1029655,325,68
1029665,312,68
1029676,327,68
1029686,319,68
1029696,317,68
1029707,331,68
1029717,315,68
1029727,336,68
1029738,334,68
1029747,320,68
1029758,334,68
1029769,319,68
1029779,323,68
1029789,329,68
1029799,313,68
1029809,328,68
1029820,324,68
1029830,304,68
1029840,278,68
1029850,304,68
1029861,528,69
1029871,652,69
1029881,652,69
1029892,340,69
1029902,306,69
1029912,324,69
1029923,309,69
1029933,293,69
1029943,314,69
1029954,309,69
1029963,306,69
1029974,328,69
1029984,307,69
1029994,326,69
1030005,330,69
1030015,316,69
1030025,337,69
1030036,328,69
1030045,333,69
1030056,350,69
1030066,336,69
1030077,358,69
1030087,359,69
1030097,360,69
1030108,374,69
1030118,366,69
1030128,375,69
1030138,367,69
1030148,333,69
1030159,334,69
1030169,306,69
1030179,299,69
1030190,314,69
1030200,293,69
1030210,307,69
1030220,304,69
1030230,298,69
1030241,314,69
1030251,299,69
1030261,307,69
1030272,314,69
1030281,304,69
1030292,318,69
1030303,306,69
1030313,310,69
1030323,324,69
1030333,300,69
1030342,317,69
1030354,313,69
1030364,306,69
1030374,323,69
1030385,305,69
1030395,314,69
1030405,318,69
1030415,304,69
1030425,321,69
1030436,315,69
1030446,308,69
1030456,326,69
1030467,306,69
1030477,323,69
1030487,323,69
1030497,312,69
1030508,329,69
1030517,311,69
1030528,319,69
1030539,330,69
1030549,314,69
1030559,326,69
1030570,322,69
1030580,316,69
1030590,336,69
1030600,320,69
1030610,333,69
1030621,333,69
1030631,317,69
1030641,331,69
1030651,321,69
1030662,322,69
1030671,327,69
1030683,309,69
1030693,329,69
1030703,309,69
1030713,268,69
1030723,339,69
1030733,542,69
1030744,651,69
1030754,636,69
1030764,254,69
1030774,326,69
1030784,317,69
1030795,302,69
1030806,317,69
1030816,296,69
1030826,321,69
1030836,314,69
1030847,308,69
1030856,329,69
1030866,315,69
1030878,327,69
1030888,330,69
1030898,319,69
1030908,346,69
1030918,333,69
1030929,343,69
1030939,357,69
1030949,349,69
1030960,370,69
1030969,369,69
1030980,367,69
1030990,388,69
1031001,366,69
1031010,366,69
1031020,353,69
1031032,308,69
1031041,319,69
1031052,298,69
1031062,298,69
1031072,306,69
1031083,292,69
1031093,311,69
1031103,296,69
1031113,298,69
1031123,318,69
1031134,298,69
1031144,311,69
1031154,316,69
1031165,302,69
1031175,320,69
1031185,308,69
1031196,309,69
1031206,322,69
1031216,305,69
1031226,316,69
1031237,317,69
1031247,305,69
1031257,323,69
1031267,305,69
1031277,316,69
1031287,321,69
1031298,307,69
1031308,323,69
1031319,315,69
1031329,313,69
1031339,326,69
1031349,311,69
1031360,322,69
1031370,322,69
1031381,311,69
1031391,330,69
1031401,313,69
1031411,318,69
1031421,326,69
1031432,316,69
1031442,341,69
1031452,324,69
1031463,317,69
1031473,333,69
1031483,313,69
1031493,327,69
1031503,321,69
1031513,312,69
1031524,328,69
1031534,316,69
1031545,300,69
1031554,276,69
1031565,375,69
1031575,617,69
1031585,652,69
1031596,530,69
1031606,258,69
1031617,326,69
1031627,312,69
1031637,308,69
1031647,292,69
1031657,315,69
1031668,300,69
1031677,309,69
1031688,323,69
1031698,304,69
1031709,327,69
1031719,319,69
1031729,319,69
1031739,334,69
1031750,325,69
1031760,338,69
1031770,347,69
1031781,337,69
1031791,362,69
1031801,354,69
1031812,360,69
1031822,374,69
1031832,360,69
1031842,375,69
1031853,350,69
1031863,321,69
1031873,322,69
1031884,294,69
1031893,297,69
1031904,300,69
1031914,284,69
1031924,303,69
1031935,297,69
1031945,291,69
1031954,309,69
1031965,296,69
1031976,305,69
1031986,306,69
1031996,300,69
1032006,310,69
1032017,300,69
1032026,307,69
1032038,314,69
1032048,300,69
1032058,316,69
1032068,307,69
1032078,305,69
1032089,312,69
1032099,302,69
1032109,312,69
1032120,312,69
1032129,304,69
1032139,321,69
1032149,310,69
1032160,311,69
1032170,324,69
1032181,305,69
1032191,324,69
1032202,317,69
1032212,313,69
1032222,328,69
1032232,309,69
1032243,325,69
1032253,325,69
1032263,314,69
1032274,335,69
1032283,315,69
1032293,322,69
1032304,330,69
1032314,313,69
1032324,335,69
1032334,338,69
1032345,325,69
1032355,342,69
1032366,318,69
1032376,331,69
1032386,332,69
1032396,317,69
1032407,335,69
1032417,321,69
1032427,326,69
1032437,313,69
1032447,260,69
1032458,369,69
1032468,593,70
1032478,652,70
1032489,644,70
1032499,272,70
1032510,338,70
1032520,323,70
1032530,297,70
1032541,320,70
1032551,301,70
1032561,314,70
1032571,325,70
1032581,308,70
1032591,327,70
1032602,323,70
1032611,320,70
1032623,335,70
1032633,325,70
1032643,337,70
1032654,340,70
1032663,333,70
1032674,359,70
1032684,347,70
1032694,355,70
1032705,370,70
1032715,357,70
1032725,375,70
1032735,371,70
1032746,352,70
1032756,353,70
1032766,314,70
1032776,316,70
1032787,308,70
1032797,298,70
1032808,311,70
1032818,301,70
1032828,300,70
1032838,315,70
1032848,300,70
1032859,313,70
1032869,310,70
1032879,302,70
1032889,319,70
1032899,303,70
1032910,311,70
1032920,318,70
1032930,302,70
1032941,319,70
1032951,312,70
1032961,306,70
1032971,320,70
1032981,302,70
1032992,317,70
1033002,312,70
1033013,305,70
1033022,323,70
1033033,308,70
1033044,313,70
1033054,326,70
1033064,309,70
1033074,325,70
1033084,314,70
1033095,310,70
1033104,328,70
1033115,310,70
1033126,323,70
1033136,321,70
1033146,313,70
1033156,328,70
1033167,315,70
1033177,319,70
1033187,330,70
1033198,310,70
1033208,327,70
1033218,322,70
1033228,319,70
1033238,343,70
1033248,322,70
1033259,334,70
1033269,332,70
1033279,315,70
1033289,335,70
1033299,320,70
1033310,322,70
1033320,330,70
1033331,313,70
1033341,323,70
1033351,274,70
1033362,290,70
1033371,505,70
1033382,651,70
1033393,652,70
1033402,376,70
1033413,285,70
1033422,340,70
1033434,301,70
1033443,296,70
1033454,314,70
1033464,297,70
1033475,314,70
1033485,313,70
1033495,308,70
1033505,328,70
1033515,315,70
1033525,324,70
1033536,334,70
1033547,319,70
1033556,341,70
1033566,334,70
1033578,340,70
1033587,359,70
1033597,344,70
1033608,363,70
1033618,367,70
1033629,354,70
1033639,376,70
1033649,357,70
1033659,346,70
1033670,334,70
1033680,303,70
1033690,312,70
1033700,296,70
1033711,296,70
1033721,307,70
1033731,294,70
1033741,311,70
1033752,303,70
1033762,299,70
1033772,312,70
1033782,300,70
1033793,308,70
1033803,314,70
1033813,298,70
1033824,316,70
1033833,307,70
1033844,306,70
1033855,317,70
1033865,297,70
1033875,315,70
1033885,314,70
1033896,302,70
1033906,322,70
1033916,308,70
1033926,310,70
1033936,317,70
1033946,302,70
1033957,320,70
1033967,314,70
1033977,310,70
1033988,327,70
1033998,307,70
1034008,320,70
1034019,323,70
1034029,310,70
1034039,329,70
1034050,314,70
1034059,318,70
1034070,328,70
1034080,311,70
1034090,330,70
1034101,322,70
1034111,316,70
1034121,331,70
1034131,314,70
1034141,333,70
1034152,339,70
1034162,321,70
1034173,339,70
1034183,326,70
1034193,323,70
1034203,335,70
1034213,315,70
1034224,332,70
1034234,325,70
1034244,314,70
1034255,315,70
1034265,263,70
1034275,387,70
1034286,612,69
1034296,652,69
1034306,559,69
1034316,250,69
1034326,332,69
1034337,319,69
1034347,298,69
1034357,316,69
1034368,312,69
1034378,310,69
1034388,325,69
1034398,314,69
1034409,326,69
1034419,329,69
1034429,320,69
1034439,339,69
1034449,333,69
1034460,329,69
1034470,349,69
1034481,337,69
1034491,356,69
1034500,359,69
1034511,357,69
1034521,376,69
1034531,364,69
1034542,373,69
1034553,379,69
1034563,346,69
1034573,344,69
1034583,313,69
1034593,300,69
1034603,309,69
1034614,288,69
1034624,301,69
1034635,301,69
1034645,288,69
1034655,311,69
1034665,295,69
1034675,300,69
1034686,314,69
1034696,296,69
1034706,312,69
1034717,304,69
1034727,307,69
1034737,315,69
1034747,301,69
1034758,313,69
1034768,309,69
1034778,299,69
1034789,313,69
1034799,302,69
1034809,308,69
1034819,315,69
1034830,303,69
1034840,316,69
1034850,309,69
1034861,307,69
1034871,319,69
1034881,306,69
1034891,318,69
1034902,319,69
1034912,309,69
1034922,325,69
1034932,310,69
1034942,315,69
1034953,322,69
1034963,309,69
1034974,336,69
1034984,328,69
1034994,315,69
1035004,333,69
1035014,316,69
1035025,325,69
1035035,323,69
1035045,317,69
1035056,326,69
1035066,317,69
1035076,303,69
1035087,288,69
1035096,353,69
1035107,588,70
1035117,651,70
1035127,530,70
1035137,250,70
1035148,318,70
1035158,320,70
1035168,314,70
1035179,303,70
1035189,326,70
1035199,313,70
1035210,316,70
1035220,330,70
1035230,318,70
1035241,329,70
1035251,330,70
1035261,326,70
1035271,346,70
1035281,334,70
1035292,349,70
1035302,351,70
1035312,347,70
1035323,370,70
1035333,363,70
1035342,368,70
1035354,384,70
1035363,370,70
1035374,376,70
1035384,362,70
1035395,325,70
1035405,326,70
1035415,298,70
1035425,298,70
1035436,303,70
1035446,285,70
1035456,304,70
1035466,294,70
1035477,295,70
1035487,310,70
1035497,295,70
1035507,304,70
1035517,309,70
1035528,294,70
1035538,317,70
1035548,301,70
1035559,306,70
1035568,314,70
1035579,297,70
1035589,316,70
1035599,305,70
1035610,304,70
1035620,316,70
1035630,298,70
1035641,311,70
1035651,312,70
1035660,301,70
1035671,321,70
1035681,303,70
1035692,311,70
1035702,321,70
1035713,305,70
1035723,318,70
1035733,313,70
1035744,308,70
1035754,323,70
1035764,304,70
1035774,316,70
1035784,328,70
1035794,317,70
1035805,335,70
1035815,314,70
1035825,323,70
1035836,323,70
1035846,311,70
1035856,329,70
1035867,317,70
1035876,313,70
1035886,329,70
1035897,275,70
1035907,273,70
1035918,441,70
1035928,646,70
1035939,652,70
1035948,470,70
1035958,267,70
1035969,342,70
1035979,298,70
1035990,305,70
1036000,308,70
1036010,299,70
1036021,320,70
1036031,307,70
1036040,320,70
1036051,324,70
1036062,312,70
1036072,330,70
1036081,322,70
1036093,328,70
1036103,342,70
1036113,329,70
1036123,346,70
1036133,353,70
1036143,344,70
1036154,369,70
1036164,358,70
1036175,369,70
1036185,375,70
1036195,356,70
1036206,358,70
1036216,329,70
1036226,314,70
1036236,318,70
1036246,297,70
1036257,312,70
1036267,304,70
1036277,297,70
1036288,316,70
1036298,300,70
1036308,310,70
1036318,319,70
1036328,298,70
1036339,319,70
1036349,312,70
1036359,309,70
1036369,321,70
1036380,308,70
1036390,319,70
1036401,315,70
1036410,307,70
1036421,324,70
1036430,309,70
1036442,315,70
1036452,323,70
1036462,306,70
1036472,321,70
1036482,314,70
1036493,311,70
1036503,326,70
1036513,309,70
1036523,320,70
1036533,323,70
1036544,312,70
1036555,328,70
1036564,315,70
1036575,316,70
1036584,329,70
1036596,310,70
1036606,329,70
1036615,331,70
1036626,322,70
1036637,341,70
1036647,315,70
1036657,329,70
1036667,330,70
1036678,315,70
1036688,332,70
1036698,321,70
1036708,319,70
1036718,325,70
1036729,268,70
1036739,306,70
1036749,512,70
1036759,651,70
1036770,652,70
1036780,347,70
1036791,304,70
1036800,339,70
1036811,297,70
1036821,316,70
1036831,307,70
1036842,307,70
1036852,321,70
1036863,307,70
1036873,325,70
1036883,323,70
1036893,316,70
1036903,336,70
1036914,321,70
1036924,336,70
1036934,338,70
1036945,337,70
1036955,354,70
1036964,349,70
1036976,357,70
1036986,369,70
1036996,359,70
1037006,375,70
1037015,372,70
1037027,358,70
1037037,352,70
1037047,324,70
1037058,317,70
1037067,308,70
1037078,298,70
1037088,307,70
1037098,303,70
1037109,301,70
1037119,312,70
1037129,297,70
1037140,312,70
1037149,312,70
1037160,303,70
1037170,322,70
1037181,304,70
1037191,313,70
1037200,314,70
1037211,302,70
1037222,319,70
1037232,311,70
1037243,308,70
1037253,319,70
1037263,306,70
1037273,313,70
1037283,317,70
1037293,306,70
1037303,323,70
1037313,311,70
1037324,313,70
1037334,324,70
1037345,305,70
1037355,322,70
1037365,318,70
1037375,310,70
1037386,328,70
1037396,309,70
1037406,331,70
1037416,319,70
1037427,313,70
1037437,327,70
1037447,316,70
1037458,316,70
1037468,333,70
1037478,322,70
1037488,339,70
1037498,324,70
1037508,317,70
1037520,334,70
1037529,314,70
1037539,323,70
1037550,327,70
1037560,310,70
1037571,331,70
1037581,294,70
1037591,266,70
1037601,411,70
1037612,606,69
1037622,652,69
1037632,504,69
1037643,240,69
1037653,346,69
1037663,298,69
1037673,304,69
1037683,312,69
1037693,302,69
1037704,320,69
1037714,310,69
1037725,316,69
1037735,325,69
1037745,314,69
1037756,331,69
1037766,328,69
1037776,323,69
1037786,345,69
1037797,329,69
1037807,348,69
1037817,355,69
1037827,351,69
1037838,374,69
1037848,361,69
1037858,370,69
1037868,387,69
1037878,363,69
1037888,361,69
1037899,337,69
1037909,307,69
1037920,317,69
1037930,294,69
1037940,300,69
1037950,306,69
1037960,291,69
1037971,311,69
1037981,302,69
1037991,301,69
1038002,314,69
1038011,300,69
1038022,310,69
1038033,314,69
1038043,300,69
1038053,324,69
1038063,306,69
1038073,311,69
1038084,319,69
1038094,302,69
1038104,318,69
1038115,314,69
1038125,309,69
1038135,322,69
1038145,302,69
1038155,318,69
1038166,319,69
1038176,305,69
1038187,325,69
1038197,310,69
1038207,317,69
1038218,324,69
1038227,306,69
1038238,324,69
1038247,315,69
1038259,310,69
1038269,326,69
1038279,318,69
1038289,330,69
1038299,330,69
1038310,315,69
1038320,330,69
1038330,313,69
1038340,319,69
1038350,324,69
1038360,308,69
1038371,325,69
1038382,315,69
1038392,274,69
1038402,284,69
1038412,432,69
1038423,649,70
1038432,652,70
1038443,394,70
1038454,271,70
1038464,327,70
1038474,301,70
1038484,309,70
1038495,296,70
1038505,314,70
1038515,309,70
1038526,306,70
1038536,325,70
1038546,310,70
1038556,321,70
1038566,327,70
1038576,317,70
1038587,338,70
1038597,330,70
1038608,336,70
1038618,351,70
1038627,338,70
1038638,360,70
1038648,363,70
1038659,356,70
1038669,374,70
1038679,362,70
1038690,363,70
1038700,346,70
1038710,312,70
1038720,317,70
1038730,297,70
1038741,297,70
1038751,306,70
1038761,285,70
