Timestamp,ECGValue,BPM
850307,394,69
850318,297,69
850328,337,69
850338,296,69
850348,316,69
850359,306,69
850369,307,69
850379,324,69
850389,307,69
850400,323,69
850409,323,69
850421,315,69
850431,336,69
850441,321,69
850451,332,69
850461,343,69
850472,331,69
850482,354,69
850492,349,69
850502,354,69
850513,374,69
850523,358,69
850533,375,69
850543,372,69
850554,351,69
850564,349,69
850574,314,69
850584,309,69
850595,309,69
850605,288,69
850614,306,69
850626,297,69
850636,295,69
850646,312,69
850656,295,69
850666,308,69
850676,309,69
850687,297,69
850697,315,69
850707,299,69
850717,306,69
850728,314,69
850739,297,69
850748,317,69
850759,308,69
850769,303,69
850779,319,69
850789,300,69
850799,313,69
850810,313,69
850820,302,69
850831,321,69
850841,304,69
850851,310,69
850862,319,69
850872,302,69
850882,322,69
850892,313,69
850903,310,69
850913,325,69
850922,307,69
850933,322,69
850943,320,69
850953,308,69
850964,327,69
850975,315,69
850985,328,69
850995,335,69
851005,315,69
851016,330,69
851026,322,69
851036,316,69
851046,331,69
851057,311,69
851067,324,69
851077,323,69
851087,302,69
851098,278,69
851107,303,69
851118,531,69
851129,652,69
851138,652,69
851149,357,69
851160,302,69
851170,319,69
851179,311,69
851189,294,69
851200,310,69
851210,313,69
851221,303,69
851231,324,69
851241,311,69
851251,318,69
851262,330,69
851272,314,69
851283,335,69
851292,329,69
851303,329,69
851313,351,69
851323,338,69
851334,357,69
851344,364,69
851354,355,69
851364,380,69
851374,368,69
851385,369,69
851395,366,69
851406,326,69
851416,327,69
851426,307,69
851437,295,69
851447,311,69
851457,289,69
851468,301,69
851478,305,69
851488,291,69
851498,312,69
851508,299,69
851519,303,69
851528,315,69
851539,296,69
851550,314,69
851560,307,69
851570,301,69
851580,319,69
851591,300,69
851601,311,69
851611,316,69
851621,301,69
851632,320,69
851642,306,69
851652,309,69
851662,321,69
851673,301,69
851683,320,69
851693,316,69
851704,309,69
851714,327,69
851724,309,69
851734,320,69
851744,324,69
851755,308,69
851765,330,69
851775,316,69
851786,316,69
851795,330,69
851805,311,69
851815,330,69
851826,322,69
851836,315,69
851847,333,69
851857,319,69
851867,334,69
851877,337,69
851888,319,69
851899,335,69
851909,320,69
851919,320,69
851929,334,69
851940,313,69
851950,327,69
851960,322,69
851970,306,69
851981,280,69
851991,308,69
852001,547,69
852011,652,69
852022,651,69
852032,327,69
852042,310,69
852053,322,69
852063,312,69
852073,298,69
852083,316,69
852093,313,69
852104,309,69
852114,332,69
852125,313,69
852135,325,69
852144,332,69
852155,317,69
852165,341,69
852175,333,69
852186,336,69
852196,354,69
852206,343,69
852217,367,69
852227,366,69
852237,365,69
852247,388,69
852258,373,69
852268,380,69
852278,372,69
852288,331,69
852298,334,69
852309,306,69
852320,300,69
852330,308,69
852340,286,69
852350,302,69
852360,303,69
852371,294,69
852380,312,69
852391,295,69
852402,306,69
852411,312,69
852422,295,69
852432,317,69
852443,305,69
852453,302,69
852463,317,69
852474,297,69
852484,312,69
852494,311,69
852504,301,69
852513,318,69
852525,301,69
852535,308,69
852545,314,69
852556,302,69
852565,317,69
852576,305,69
852586,307,69
852597,323,69
852606,301,69
852617,317,69
852627,317,69
852637,306,69
852648,323,69
852658,309,69
852668,315,69
852678,321,69
852688,307,69
852699,321,69
852709,319,69
852720,320,69
852730,338,69
852740,311,69
852750,323,69
852760,323,69
852771,312,69
852781,330,69
852791,312,69
852801,318,69
852812,324,69
852822,287,69
852832,285,69
852842,390,69
852853,603,69
852864,651,69
852874,470,69
852883,247,69
852893,330,69
852904,299,69
852915,315,69
852925,305,69
852935,311,69
852946,321,69
852956,308,69
852966,330,69
852976,324,69
852987,320,69
852997,340,69
853007,324,69
853017,341,69
853027,346,69
853038,337,69
853048,365,69
853059,355,69
853068,366,69
853079,384,69
853089,369,69
853099,390,69
853109,385,69
853120,371,69
853130,363,69
853141,316,69
853150,314,69
853161,305,69
853171,286,69
853182,303,69
853192,289,69
853202,293,69
853212,304,69
853222,287,69
853233,307,69
853243,302,69
853254,297,69
853263,314,69
853274,298,69
853284,311,69
853294,312,69
853304,299,69
853315,318,69
853326,304,69
853335,307,69
853346,316,69
853356,299,69
853366,318,69
853376,309,69
853387,302,69
853397,320,69
853408,301,69
853417,312,69
853428,317,69
853439,304,69
853448,321,69
853459,308,69
853468,312,69
853479,323,69
853489,304,69
853499,322,69
853510,314,69
853520,309,69
853531,323,69
853540,307,69
853551,328,69
853561,327,69
853571,313,69
853582,328,69
853593,314,69
853603,316,69
853613,327,69
853623,308,69
853633,324,69
853644,317,69
853654,304,69
853664,280,69
853674,292,69
853684,521,70
853695,652,70
853705,650,70
853715,305,70
853725,291,70
853736,317,70
853746,305,70
853756,291,70
853766,311,70
853777,307,70
853788,300,70
853798,323,70
853808,307,70
853818,319,70
853828,326,70
853839,312,70
853848,336,70
853859,328,70
853869,332,70
853880,352,70
853890,338,70
853900,361,70
853911,363,70
853920,360,70
853930,384,70
853941,368,70
853951,377,70
853962,366,70
853972,328,70
853982,330,70
853992,305,70
854003,298,70
854013,310,70
854023,289,70
854033,307,70
854043,304,70
854054,295,70
854064,315,70
854075,299,70
854084,309,70
854095,316,70
854105,301,70
854116,322,70
854126,309,70
854136,310,70
854147,324,70
854157,304,70
854167,320,70
854177,315,70
854187,305,70
854198,325,70
854208,309,70
854218,316,70
854228,323,70
854238,305,70
854249,325,70
854259,314,70
854270,312,70
854280,328,70
854290,307,70
854301,324,70
854311,321,70
854321,311,70
854331,332,70
854341,313,70
854352,321,70
854362,329,70
854372,311,70
854383,332,70
854393,322,70
854403,320,70
854413,332,70
854424,314,70
854434,329,70
854444,335,70
854454,327,70
854465,344,70
854475,325,70
854485,329,70
854495,337,70
854505,317,70
854516,334,70
854526,325,70
854537,321,70
854547,336,70
854557,296,70
854568,272,70
854578,376,70
854588,604,70
854598,653,70
854608,644,70
854619,279,70
854629,339,70
854639,306,70
854650,313,70
854660,305,70
854670,302,70
854681,324,70
854690,304,70
854701,321,70
854711,323,70
854722,312,70
854731,334,70
854742,320,70
854752,329,70
854762,341,70
854773,328,70
854783,350,70
854793,347,70
854804,349,70
854813,372,70
854824,356,70
854835,372,70
854844,377,70
854854,361,70
854865,367,70
854875,331,70
854886,318,70
854896,318,70
854906,292,70
854917,309,70
854927,300,70
854937,294,70
854948,314,70
854957,295,70
854967,308,70
854978,311,70
854988,297,70
854998,317,70
855008,302,70
855019,306,70
855030,319,70
855040,299,70
855050,316,70
855060,310,70
855071,303,70
855081,320,70
855091,300,70
855101,314,70
855111,316,70
855122,301,70
855132,320,70
855142,308,70
855153,310,70
855163,321,70
855173,302,70
855184,320,70
855193,314,70
855204,306,70
855214,324,70
855225,306,70
855235,318,70
855244,321,70
855255,307,70
855266,328,70
855276,314,70
855286,316,70
855297,329,70
855307,310,70
855317,327,70
855327,322,70
855337,315,70
855348,331,70
855358,313,70
855369,322,70
855379,335,70
855388,323,70
855399,341,70
855409,323,70
855419,323,70
855429,334,70
855440,314,70
855450,330,70
855460,324,70
855471,315,70
855481,333,70
855492,288,70
855502,269,70
855512,400,70
855523,625,69
855533,653,69
855543,616,69
855553,264,69
855563,344,69
855574,300,69
855584,308,69
855594,306,69
855604,299,69
855614,321,69
855625,305,69
855635,316,69
855645,324,69
855655,309,69
855666,332,69
855676,322,69
855687,327,69
855697,344,69
855707,328,69
855718,350,69
855727,353,69
855737,350,69
855748,374,69
855759,359,69
855769,373,69
855779,381,69
855789,362,69
855799,368,69
855809,337,69
855819,317,69
855830,319,69
855841,294,69
855851,310,69
855861,304,69
855871,292,69
855881,313,69
855892,296,69
855902,306,69
855912,315,69
855922,298,69
855933,318,69
855943,309,69
855954,305,69
855964,320,69
855974,301,69
855984,316,69
855994,314,69
856005,303,69
856015,321,69
856024,303,69
856036,311,69
856046,321,69
856056,302,69
856066,319,69
856077,309,69
856087,307,69
856097,322,69
856108,299,69
856118,316,69
856127,317,69
856138,305,69
856149,325,69
856159,309,69
856169,316,69
856179,324,69
856190,306,69
856199,327,69
856210,318,69
856220,312,69
856231,331,69
856241,311,69
856251,323,69
856261,325,69
856272,311,69
856282,328,69
856292,329,69
856302,332,69
856313,335,69
856323,317,69
856334,331,69
856343,322,69
856354,318,69
856364,331,69
856375,312,69
856384,323,69
856394,319,69
856405,268,69
856415,322,69
856426,527,69
856436,651,69
856446,650,69
856457,280,69
856466,311,69
856476,323,69
856487,297,69
856497,317,69
856507,299,69
856518,315,69
856528,318,69
856538,308,69
856549,332,69
856559,320,69
856569,326,69
856579,336,69
856589,322,69
856600,345,69
856610,339,69
856621,339,69
856631,362,69
856641,351,69
856651,368,69
856661,375,69
856672,367,69
856682,387,69
856693,373,69
856703,366,69
856713,356,69
856724,315,69
856733,320,69
856744,304,69
856754,294,69
856765,312,69
856774,294,69
856784,306,69
856795,312,69
856805,297,69
856816,319,69
856826,305,69
856836,308,69
856846,322,69
856857,303,69
856867,321,69
856877,316,69
856888,308,69
856897,326,69
856908,307,69
856918,317,69
856929,318,69
856939,304,69
856948,325,69
856959,312,69
856970,313,69
856980,325,69
856990,307,69
857001,323,69
857010,316,69
857021,310,69
857031,328,69
857041,309,69
857052,323,69
857062,325,69
857073,308,69
857082,330,69
857092,312,69
857103,320,69
857114,338,69
857124,319,69
857134,329,69
857144,322,69
857155,314,69
857164,331,69
857175,310,69
857185,321,69
857195,322,69
857206,307,69
857215,301,69
857226,269,69
857236,410,69
857246,641,69
857257,651,69
857268,465,69
857278,248,69
857288,320,69
857298,313,69
857308,292,69
857318,304,69
857329,312,69
857339,297,69
857350,319,69
857360,310,69
857370,311,69
857381,329,69
857391,312,69
857400,332,69
857411,332,69
857421,327,69
857432,351,69
857442,337,69
857453,353,69
857462,365,69
857472,352,69
857483,379,69
857493,369,69
857504,368,69
857514,378,69
857524,337,69
857534,329,69
857544,311,69
857555,292,69
857565,307,69
857575,288,69
857586,294,69
857596,303,69
857606,287,69
857616,307,69
857626,297,69
857637,297,69
857647,313,69
857658,293,69
857668,311,69
857677,310,69
857687,299,69
857698,321,69
857708,302,69
857718,310,69
857730,319,69
857739,300,69
857749,322,69
857760,310,69
857770,309,69
857781,325,69
857791,303,69
857801,320,69
857812,318,69
857822,306,69
857831,328,69
857842,311,69
857853,318,69
857862,328,69
857873,311,69
857883,329,69
857893,319,69
857903,313,69
857915,334,69
857924,310,69
857935,329,69
857945,338,69
857956,322,69
857966,342,69
857976,320,69
857986,326,69
857996,333,69
858007,315,69
858017,333,69
858027,322,69
858037,319,69
858048,322,69
858058,259,69
858068,331,69
858078,562,69
858089,652,69
858099,651,69
858109,308,69
858119,314,69
858130,330,69
858140,292,69
858151,314,69
858161,306,69
858171,304,69
858181,322,69
858191,304,69
858201,322,69
858212,326,69
858221,312,69
858233,336,69
858243,323,69
858252,329,69
858263,344,69
858273,331,69
858284,356,69
858294,352,69
858304,352,69
858314,374,69
858325,357,69
858335,373,69
858345,375,69
858356,348,69
858365,351,69
858375,317,69
858386,308,69
858397,312,69
858406,289,69
858417,308,69
858428,300,69
858437,295,69
858448,314,69
858458,295,69
858469,310,69
858479,312,69
858489,298,69
858499,320,69
858509,304,69
858519,307,69
858530,318,69
858540,299,69
858551,317,69
858561,311,69
858571,303,69
858582,321,69
858592,303,69
858602,314,69
858612,317,69
858623,302,69
858633,322,69
858643,308,69
858653,312,69
858664,323,69
858674,305,69
858684,322,69
858694,317,69
858705,309,69
858715,329,69
858725,309,69
858735,317,69
858745,322,69
858756,307,69
858767,327,69
858776,325,69
858787,323,69
858797,335,69
858808,310,69
858818,328,69
858828,321,69
858838,312,69
858849,329,69
858858,310,69
858869,321,69
858878,321,69
858890,264,69
858899,302,69
858909,495,69
858921,651,69
858931,652,69
858941,374,69
858950,297,69
858961,330,69
858972,293,69
858981,312,69
858992,295,69
859002,306,69
859012,315,69
859023,301,69
859032,325,69
859044,314,69
859054,316,69
859063,332,69
859074,315,69
859084,334,69
859095,335,69
859105,330,69
859115,355,69
859125,342,69
859135,358,69
859146,368,69
859157,355,69
859167,379,69
859177,367,69
859187,358,69
859197,353,69
859208,314,69
859218,317,69
859228,306,69
859239,292,69
859248,311,69
859258,293,69
859269,302,69
859280,310,69
859290,294,69
859299,315,69
859310,304,69
859321,303,69
859331,320,69
859341,300,69
859351,316,69
859362,311,69
859372,301,69
859381,323,69
859392,304,69
859402,311,69
859413,318,69
859424,300,69
859434,320,69
859444,310,69
859454,307,69
859464,321,69
859474,303,69
859484,317,69
859495,314,69
859505,301,69
859515,321,69
859525,307,69
859536,314,69
859547,321,69
859557,304,69
859566,324,69
859577,314,69
859587,311,69
859598,335,69
859608,313,69
859618,330,69
859628,323,69
859639,308,69
859649,328,69
859659,310,69
859669,317,69
859679,323,69
859690,304,69
859700,323,69
859711,276,69
859721,280,69
859731,492,69
859741,651,69
859752,652,69
859762,363,69
859772,269,69
859782,337,69
859793,294,69
859803,302,69
859813,311,69
859824,295,69
859834,319,69
859844,311,69
859854,310,69
859865,328,69
859874,313,69
859885,326,69
859896,330,69
859905,321,69
859916,348,69
859926,336,69
859937,345,69
859947,362,69
859957,350,69
859968,372,69
859978,369,69
859988,369,69
859998,384,69
860008,354,69
860019,346,69
860029,330,69
860039,298,69
860049,309,69
860059,294,69
860070,297,69
860080,307,69
860091,288,69
860100,311,69
860110,304,69
860121,297,69
860131,317,69
860141,299,69
860152,312,69
860162,315,69
860172,302,69
860183,321,69
860192,307,69
860204,310,69
860214,323,69
860224,305,69
860235,322,69
860244,313,69
860254,307,69
860265,326,69
860275,307,69
860285,320,69
860295,322,69
860306,308,69
860316,329,69
860326,314,69
860337,314,69
860347,330,69
860357,307,69
860368,332,69
860377,332,69
860388,324,69
860399,336,69
860409,314,69
860419,325,69
860429,328,69
860439,312,69
860449,333,69
860459,318,69
860470,317,69
860480,315,69
860491,261,69
860501,365,69
860511,588,70
860522,651,70
860531,580,70
860542,233,70
860553,327,70
860563,320,70
860573,296,70
860583,319,70
860593,307,70
860604,310,70
860614,326,70
860624,309,70
860634,329,70
860645,327,70
860655,317,70
860666,341,70
860675,326,70
860686,338,70
860696,348,70
860706,337,70
860716,363,70
860726,355,70
860737,361,70
860747,377,70
860757,361,70
860767,380,70
860778,370,70
860788,340,70
860799,338,70
860809,303,70
860819,302,70
860829,304,70
860840,285,70
860850,304,70
860860,293,70
860871,293,70
860880,309,70
860891,290,70
860901,309,70
860911,306,70
860921,296,70
860933,318,70
860943,302,70
860953,309,70
860963,317,70
860973,299,70
860983,320,70
860993,307,70
861003,306,70
861014,320,70
861024,300,70
861034,317,70
861044,313,70
861055,301,70
861065,322,70
861075,305,70
861086,314,70
861096,322,70
861107,305,70
861117,326,70
861127,315,70
861138,315,70
861148,331,70
861158,308,70
861168,324,70
861179,321,70
861189,316,70
861199,343,70
861209,323,70
861219,330,70
861230,333,70
861240,315,70
861250,333,70
861260,322,70
861271,318,70
861281,334,70
861291,313,70
861302,320,70
861312,274,70
861322,310,70
861333,557,70
861343,652,70
861353,651,70
861363,328,70
861373,300,70
861383,332,70
861394,299,70
861405,298,70
861415,317,70
861424,297,70
861435,316,70
861446,317,70
861455,307,70
861466,330,70
861476,315,70
861486,323,70
861497,335,70
861507,322,70
861518,343,70
861528,338,70
861538,339,70
861548,362,70
861558,346,70
861569,364,70
861579,367,70
861588,356,70
861600,376,70
861609,350,70
861620,337,70
861631,330,70
861641,299,70
861651,311,70
861661,301,70
861671,295,70
861682,313,70
861692,295,70
861703,308,70
861712,310,70
861722,298,70
861732,317,70
861743,303,70
861754,307,70
861764,319,70
861774,299,70
861785,319,70
861795,310,70
861804,304,70
861815,322,70
861825,302,70
861836,314,70
861846,316,70
861856,302,70
861867,322,70
861877,308,70
861887,312,70
861898,323,70
861907,304,70
861918,323,70
861928,317,70
861938,308,70
861948,329,70
861959,311,70
861969,322,70
861979,322,70
861990,309,70
861999,327,70
862010,322,70
862021,326,70
862031,338,70
862041,314,70
862051,330,70
862061,323,70
862072,314,70
862082,331,70
862092,311,70
862102,321,70
862112,325,70
862123,290,70
862133,272,70
862143,362,70
862154,603,70
862164,653,70
862174,628,70
862185,270,70
862194,328,70
862206,302,70
862216,312,70
862226,294,70
862236,306,70
862246,314,70
862257,301,70
862267,323,70
862277,312,70
862288,315,70
862297,332,70
862308,314,70
862318,336,70
862329,333,70
862338,329,70
862349,354,70
862359,341,70
862369,356,70
862380,366,70
862390,353,70
862400,377,70
862411,368,70
862421,365,70
862430,362,70
862441,322,70
862451,323,70
862462,308,70
862472,296,70
862482,312,70
862492,293,70
862503,303,70
862513,310,70
862524,295,70
862533,316,70
862544,304,70
862554,304,70
862564,319,70
862574,299,70
862585,316,70
862595,313,70
862605,302,70
862616,321,70
862626,305,70
862636,312,70
862646,317,70
862657,300,70
862667,321,70
862678,309,70
862687,308,70
862697,322,70
862708,303,70
862719,317,70
862729,316,70
862739,306,70
862749,327,70
862759,307,70
862770,316,70
862780,322,70
862789,304,70
862800,324,70
862811,314,70
862821,312,70
862832,326,70
862842,308,70
862852,324,70
862862,319,70
862872,310,70
862883,329,70
862893,314,70
862903,332,70
862913,334,70
862923,315,70
862933,332,70
862945,320,70
862954,315,70
862965,329,70
862975,311,70
862985,324,70
862996,321,70
863005,302,70
863017,279,70
863027,300,70
863037,525,71
863047,652,71
863057,652,71
863068,332,71
863078,302,71
863088,318,71
863098,309,71
863108,292,71
863118,307,71
863129,310,71
863139,299,71
863150,321,71
863159,306,71
863170,314,71
863181,324,71
863190,308,71
863201,333,71
863211,324,71
863222,322,71
863232,346,71
863242,330,71
863252,348,71
863263,355,71
863273,346,71
863282,368,71
863293,357,71
863304,361,71
863314,362,71
863324,325,71
863334,325,71
863345,302,71
863355,291,71
863366,305,71
863375,284,71
863386,297,71
863396,300,71
863406,286,71
863417,309,71
863427,296,71
863437,302,71
863448,313,71
863458,294,71
863468,312,71
863478,304,71
863488,299,71
863499,316,71
863509,297,71
863520,309,71
863530,313,71
863540,298,71
863550,318,71
863560,303,71
863571,306,71
863581,319,71
863590,300,71
863602,316,71
863611,310,71
863621,306,71
863632,325,71
863642,304,71
863652,316,71
863663,320,71
863672,307,71
863684,326,71
863694,312,71
863704,314,71
863714,328,71
863724,310,71
863735,328,71
863745,319,71
863756,315,71
863766,332,71
863776,315,71
863786,337,71
863797,339,71
863807,322,71
863817,336,71
863827,323,71
863838,324,71
863848,337,71
863858,317,71
863868,332,71
863879,326,71
863889,311,71
863899,293,71
863909,308,71
863919,537,71
863930,652,71
863940,649,71
863950,298,71
863960,302,71
863971,326,71
863981,316,71
863992,301,71
864002,319,71
864012,317,71
864022,312,71
864032,331,71
864043,316,71
864053,328,71
864064,336,71
864073,323,71
864084,347,71
864094,337,71
864105,342,71
864115,360,71
864125,346,71
864135,367,71
864145,368,71
864155,361,71
864166,386,71
864176,369,71
864187,378,71
864197,372,71
864206,334,71
864217,336,71
864228,309,71
864238,301,71
864248,310,71
864258,290,71
864269,307,71
864279,305,71
864289,295,71
864300,315,71
864310,299,71
864320,308,71
864330,314,71
864340,299,71
864351,320,71
864360,308,71
864371,307,71
864381,322,71
864392,301,71
864401,319,71
864412,316,71
864423,305,71
864433,325,71
864443,307,71
864453,315,71
864463,321,71
864474,306,71
864484,325,71
864494,315,71
864505,314,71
864515,329,71
864526,309,71
864535,325,71
864546,322,71
864556,312,71
864566,332,71
864577,315,71
864586,323,71
864597,332,71
864606,314,71
864617,333,71
864627,322,71
864638,319,71
864648,336,71
864659,316,71
864669,330,71
864679,328,71
864689,318,71
864699,337,71
864709,331,71
864720,336,71
864730,345,71
864740,321,71
864750,338,71
864761,328,71
864772,323,71
864782,337,71
864792,316,71
864802,331,71
864812,326,71
864823,274,71
864833,299,71
864844,476,71
864854,651,71
864864,653,71
864874,422,71
864884,292,71
864895,334,71
864905,299,71
864915,316,71
864926,299,71
864936,314,71
864946,316,71
864956,306,71
864967,329,71
864977,315,71
864987,321,71
864997,333,71
865007,316,71
865018,340,71
865028,335,71
865039,335,71
865048,358,71
865058,341,71
865069,360,71
865079,366,71
865090,357,71
865099,379,71
865111,366,71
865121,366,71
865131,359,71
865141,320,71
865151,325,71
865161,306,71
865172,298,71
865183,313,71
865193,294,71
865203,306,71
865213,309,71
865223,295,71
865233,316,71
865244,304,71
865254,308,71
865264,318,71
865275,301,71
865285,319,71
865295,312,71
865306,305,71
865315,323,71
865326,304,71
865336,314,71
865346,316,71
865356,300,71
865367,320,71
865378,306,71
865388,309,71
865398,320,71
865408,302,71
865418,319,71
865428,314,71
865439,306,71
865449,324,71
865459,307,71
865469,319,71
865480,321,71
865490,308,71
865500,326,71
865511,312,71
865521,316,71
865530,327,71
865541,308,71
865551,327,71
865562,321,71
865572,313,71
865583,334,71
865593,313,71
865603,324,71
865614,329,71
865623,311,71
865634,345,71
865644,329,71
865654,330,71
865665,337,71
865674,316,71
865685,334,71
865696,328,71
865706,318,71
865716,337,71
865726,317,71
865737,324,71
865747,289,71
865757,280,71
865767,494,71
865778,652,70
865788,653,70
865798,438,70
865808,272,70
865819,341,70
865829,308,70
865839,298,70
865850,319,70
865860,304,70
865870,314,70
865881,322,70
865890,309,70
865901,333,70
865911,322,70
865921,322,70
865932,339,70
865941,324,70
865951,344,70
865962,344,70
865973,341,70
865983,363,70
865993,351,70
866003,365,70
866013,375,70
866023,361,70
866034,385,70
866044,368,70
866054,346,70
866065,338,70
866075,306,70
866086,311,70
866096,303,70
866105,289,70
866117,311,70
866126,292,70
866136,301,70
866147,309,70
866157,291,70
866168,309,70
866178,301,70
866189,298,70
866198,313,70
866209,293,70
866219,306,70
866229,305,70
866239,295,70
866250,315,70
866260,298,70
866270,304,70
866280,313,70
866291,295,70
866301,315,70
866312,306,70
866321,302,70
866331,320,70
866341,301,70
866353,315,70
866363,313,70
866373,301,70
866383,321,70
866393,303,70
866403,311,70
866414,322,70
866424,307,70
866434,322,70
866445,313,70
866454,312,70
866465,326,70
866476,306,70
866486,320,70
866496,317,70
866506,317,70
866516,337,70
866526,320,70
866536,325,70
866547,328,70
866557,311,70
866568,327,70
866578,319,70
866589,314,70
866598,329,70
866609,312,70
866619,292,70
866630,294,70
866640,457,70
866650,650,70
866661,651,70
866671,357,70
866680,283,70
866691,322,70
866701,312,70
866711,308,70
866722,306,70
866732,324,70
866742,308,70
866752,325,70
866763,327,70
866773,317,70
866783,340,70
866794,326,70
866804,333,70
866814,349,70
866825,334,70
866835,357,70
866845,353,70
866855,355,70
866866,378,70
866876,365,70
866886,381,70
866897,387,70
866906,373,70
866917,385,70
866928,348,70
866938,329,70
866948,324,70
866958,296,70
866969,310,70
866978,300,70
866989,293,70
867000,311,70
867009,295,70
867020,308,70
867030,312,70
867040,299,70
867050,319,70
867060,307,70
867071,309,70
867082,321,70
867091,301,70
867102,318,70
867113,312,70
867122,303,70
867133,321,70
867142,302,70
867154,311,70
867164,313,70
867174,298,70
867184,317,70
867194,304,70
867204,306,70
867214,319,70
867225,302,70
867235,317,70
867245,312,70
867256,305,70
867266,323,70
867276,305,70
867287,316,70
867297,319,70
867307,303,70
867318,325,70
867328,310,70
867338,321,70
867348,336,70
867358,315,70
867369,326,70
867379,319,70
867389,311,70
867400,330,70
867410,309,70
867420,318,70
867430,321,70
867441,306,70
867451,293,70
867461,269,70
867471,431,70
867482,650,70
867492,652,70
867503,445,70
867512,259,70
867523,323,70
867533,311,70
867543,293,70
867553,303,70
867564,312,70
867574,299,70
867584,320,70
867595,310,70
867604,314,70
867614,331,70
867626,313,70
867636,332,70
867646,333,70
867656,325,70
867667,349,70
867677,337,70
867687,350,70
867697,363,70
867707,352,70
867718,375,70
867728,367,70
867738,368,70
867748,376,70
867759,338,70
867769,333,70
867779,315,70
867790,295,70
867800,311,70
867810,293,70
867821,301,70
867831,309,70
867841,292,70
867851,313,70
867862,303,70
867871,301,70
867882,318,70
867892,299,70
867902,315,70
867913,314,70
867923,302,70
867933,324,70
867944,305,70
867954,311,70
867964,319,70
867974,301,70
867985,321,70
867995,310,70
868005,308,70
868016,323,70
868026,304,70
868036,318,70
868046,318,70
868056,305,70
868066,326,70
868077,310,70
868087,315,70
868097,326,70
868107,311,70
868117,328,70
868129,320,70
868139,316,70
868149,331,70
868160,312,70
868169,327,70
868180,326,70
868190,325,70
868200,343,70
868210,326,70
868220,325,70
868231,334,70
868241,314,70
868251,333,70
868262,324,70
868272,318,70
868283,334,70
868293,313,70
868303,289,70
868313,292,70
868324,472,70
868334,652,69
868344,653,69
868354,423,69
868365,289,69
868375,322,69
868385,310,69
868395,303,69
868406,300,69
868415,320,69
868426,302,69
868436,317,69
868446,322,69
868456,308,69
868467,332,69
868477,318,69
868487,323,69
868498,338,69
868508,324,69
868519,347,69
868528,345,69
868539,344,69
868549,366,69
868559,352,69
868570,367,69
868580,373,69
868590,361,69
868601,374,69
868611,340,69
868621,324,69
868632,321,69
868642,293,69
868652,306,69
868663,298,69
868673,291,69
868683,310,69
868693,292,69
868703,304,69
868713,308,69
868724,295,69
868735,316,69
868744,302,69
868754,304,69
868764,318,69
868775,299,69
868785,316,69
868795,310,69
868805,302,69
868815,320,69
868827,300,69
868836,311,69
868846,315,69
868857,299,69
868867,319,69
868878,307,69
868888,307,69
868898,322,69
868909,302,69
868918,318,69
868929,314,69
868940,306,69
868950,326,69
868960,308,69
868971,318,69
868980,323,69
868991,307,69
869001,328,69
869011,316,69
869021,313,69
869031,329,69
869041,308,69
869052,329,69
869063,333,69
869072,321,69
869083,338,69
869093,315,69
869104,322,69
869114,328,69
869124,310,69
869135,327,69
869144,314,69
869155,314,69
869165,315,69
869176,255,69
869186,344,69
869196,577,69
869206,652,69
869217,649,69
869226,267,69
869237,321,69
869247,321,69
869258,287,69
869268,311,69
869278,302,69
869289,302,69
869298,322,69
869309,304,69
869319,318,69
869330,321,69
869340,310,69
869350,334,69
869360,317,69
869370,330,69
869380,342,69
869391,332,69
869401,354,69
869412,351,69
869422,355,69
869432,375,69
869442,358,69
869453,378,69
869463,376,69
869473,348,69
869483,347,69
869494,312,69
869504,306,69
869514,306,69
869525,289,69
869535,306,69
869545,297,69
869555,296,69
869566,311,69
869576,294,69
869586,307,69
869597,310,69
869606,298,69
869616,315,69
869627,303,69
869637,307,69
869648,314,69
869658,300,69
869668,315,69
869678,306,69
869689,304,69
869699,320,69
869709,300,69
869719,314,69
869730,313,69
869740,301,69
869751,320,69
869761,306,69
869771,313,69
869781,322,69
869791,304,69
869801,324,69
869812,315,69
869822,308,69
869833,328,69
869843,309,69
869853,319,69
869863,325,69
869873,308,69
869883,332,69
869894,326,69
869904,329,69
869915,334,69
869925,312,69
869935,330,69
869945,322,69
869956,315,69
869966,332,69
869976,315,69
869987,325,69
869996,314,69
870007,269,69
870017,367,69
870027,580,69
870037,652,69
870047,609,69
870059,234,69
870069,331,69
870078,319,69
870088,301,69
870100,322,69
870109,306,69
870120,320,69
870131,323,69
870140,313,69
870150,335,69
870161,322,69
870171,328,69
870182,341,69
870192,326,69
870201,348,69
870213,346,69
870223,345,69
870233,369,69
870243,356,69
870253,373,69
870264,380,69
870274,368,69
870285,392,69
870294,375,69
870305,358,69
870315,348,69
870325,309,69
870335,313,69
870346,302,69
870356,291,69
870367,307,69
870376,289,69
870387,300,69
870398,304,69
870408,291,69
870418,311,69
870428,300,69
870438,302,69
870449,317,69
870459,297,69
870469,314,69
870479,311,69
870489,302,69
870500,320,69
870510,302,69
870520,310,69
870531,316,69
870541,299,69
870551,319,69
870562,306,69
870571,308,69
870582,320,69
870592,301,69
870602,318,69
870613,314,69
870622,305,69
870632,325,69
870643,307,69
870653,315,69
870664,322,69
870674,305,69
870684,327,69
870694,315,69
870705,315,69
870716,326,69
870725,309,69
870736,322,69
870746,328,69
870756,322,69
870767,339,69
870777,319,69
870787,324,69
870797,330,69
870807,313,69
870817,330,69
870828,319,69
870838,317,69
870849,331,69
870859,290,69
870869,272,69
870879,380,69
870890,606,68
870900,653,68
870911,617,68
870921,262,68
870931,340,68
870941,301,68
870952,311,68
870962,302,68
870971,303,68
870982,320,68
870993,304,68
871003,321,68
871013,321,68
871023,312,68
871034,333,68
871044,320,68
871055,330,68
871064,341,68
871074,326,68
871085,350,68
871095,346,68
871105,348,68
871116,368,68
871126,352,68
871137,370,68
871147,372,68
871157,359,68
871167,365,68
871178,329,68
871187,317,68
871198,315,68
871208,291,68
871218,308,68
871229,300,68
871239,296,68
871249,313,68
871260,294,68
871270,308,68
871280,309,68
871290,297,68
871300,319,68
871311,303,68
871320,307,68
871331,320,68
871342,301,68
871352,321,68
871362,312,68
871372,306,68
871382,324,68
871393,303,68
871403,316,68
871413,318,68
871424,303,68
871433,324,68
871444,307,68
871454,312,68
871464,324,68
871475,305,68
871485,324,68
871495,315,68
871505,310,68
871516,328,68
871526,310,68
871537,322,68
871547,325,68
871557,311,68
871567,331,68
871578,317,68
871587,318,68
871599,330,68
871608,311,68
871618,331,68
871629,334,68
871639,325,68
871649,342,68
871660,318,68
871670,328,68
871681,329,68
871691,315,68
871700,332,68
871712,319,68
871721,321,68
871731,327,68
871741,266,68
871752,301,68
871762,504,68
871772,652,68
871783,653,68
871793,368,68
871803,294,68
871814,335,68
871824,290,68
871834,312,68
871844,302,68
871854,303,68
871865,319,68
871876,304,68
871886,322,68
871896,319,68
871906,314,68
871916,335,68
871927,319,68
871937,330,68
871947,339,68
871958,329,68
871968,354,68
871978,348,68
871988,352,68
871999,370,68
872009,356,68
872019,378,68
872029,372,68
872040,354,68
872050,356,68
872060,315,68
872071,311,68
872081,306,68
872091,287,68
872101,307,68
872112,292,68
872122,294,68
872131,308,68
872142,289,68
872153,307,68
872163,307,68
872173,293,68
872183,313,68
872194,295,68
872203,306,68
872215,312,68
872224,296,68
872234,314,68
872244,299,68
872255,303,68
872266,318,68
872275,295,68
872286,312,68
872296,311,68
872306,301,68
872317,317,68
872327,302,68
872337,309,68
872348,315,68
872357,299,68
872368,320,68
872379,308,68
872388,306,68
872399,321,68
872409,302,68
872419,319,68
872429,313,68
872439,304,68
872450,323,68
872460,312,68
872471,327,68
872481,330,68
872491,310,68
872502,327,68
872511,314,68
872522,311,68
872532,328,68
872542,308,68
872553,320,68
872563,320,68
872573,293,68
872584,283,68
872594,358,68
872604,593,69
872615,652,69
872624,558,69
872635,245,69
872645,322,69
872656,307,69
872666,313,69
872676,300,69
872686,314,69
872696,318,69
872706,309,69
872717,330,69
872727,317,69
872738,325,69
872748,337,69
872758,324,69
872768,345,69
872778,341,69
872789,339,69
872799,361,69
872810,350,69
872819,371,69
872829,377,69
872839,366,69
872850,390,69
872860,378,69
872871,378,69
872881,369,69
872892,327,69
872902,325,69
872912,305,69
872922,294,69
872933,310,69
872943,290,69
872953,302,69
872963,304,69
872974,292,69
872984,314,69
872994,300,69
873004,306,69
873014,317,69
873025,300,69
873036,318,69
873046,311,69
873055,306,69
873067,324,69
873077,304,69
873087,315,69
873097,318,69
873108,304,69
873117,324,69
873128,308,69
873138,311,69
873148,322,69
873159,303,69
873168,322,69
873178,314,69
873189,308,69
873200,326,69
873210,308,69
873220,320,69
873230,324,69
873241,307,69
873251,327,69
873261,314,69
873271,313,69
873282,326,69
873293,307,69
873302,324,69
873313,331,69
873323,321,69
873333,338,69
873344,315,69
873354,325,69
873364,328,69
873374,311,69
873385,330,69
873394,316,69
873405,317,69
873415,325,69
873424,263,69
873435,303,69
873446,511,69
873457,652,69
873467,652,69
873477,353,69
873487,295,69
873497,334,69
873508,292,69
873518,314,69
873528,303,69
873538,305,69
873549,321,69
873559,303,69
873569,322,69
873579,320,69
873589,313,69
873600,335,69
873610,320,69
873620,332,69
873631,342,69
873641,330,69
873652,354,69
873662,348,69
873672,353,69
873682,371,69
873693,357,69
873703,377,69
873713,374,69
873724,356,69
873733,356,69
873744,318,69
873754,314,69
873764,311,69
873775,293,69
873785,312,69
873795,300,69
873805,300,69
873816,317,69
873826,298,69
873837,313,69
873847,312,69
873856,302,69
873867,322,69
873877,305,69
873887,314,69
873898,321,69
873908,303,69
873919,323,69
873929,312,69
873939,310,69
873949,325,69
873959,305,69
873970,319,69
873980,318,69
873990,306,69
874000,326,69
874010,310,69
874020,317,69
874031,323,69
874041,306,69
874052,325,69
874062,316,69
874072,313,69
874082,330,69
874092,309,69
874103,326,69
874114,324,69
874123,311,69
874134,332,69
874144,313,69
874154,321,69
874164,329,69
874174,312,69
874185,341,69
874195,328,69
874206,326,69
874216,336,69
874226,315,69
874236,329,69
874246,327,69
874257,314,69
874267,334,69
874277,316,69
874288,317,69
874298,286,69
874308,284,69
874319,511,70
874329,652,70
874339,652,70
874350,391,70
874360,282,70
874370,335,70
874380,305,70
874391,295,70
874401,316,70
874410,303,70
874421,310,70
874432,322,70
874442,307,70
874452,327,70
874462,321,70
874473,317,70
874482,337,70
874492,320,70
874504,336,70
874514,342,70
874524,335,70
874534,363,70
874544,352,70
874554,361,70
874565,374,70
874575,360,70
874586,379,70
874596,365,70
874606,340,70
874617,338,70
874627,304,70
874637,309,70
874647,305,70
874658,290,70
874668,310,70
874677,297,70
874688,301,70
874698,313,70
874709,296,70
874719,316,70
874730,309,70
874740,302,70
874750,320,70
874760,303,70
874770,311,70
874781,316,70
874791,300,70
874801,318,70
874811,305,70
874821,308,70
874832,320,70
874842,300,70
874852,315,70
874863,311,70
874873,305,70
874883,322,70
874894,304,70
874903,314,70
874914,317,70
874924,303,70
874934,322,70
874945,309,70
874954,310,70
874966,326,70
874975,306,70
874985,320,70
874996,316,70
875006,308,70
875017,328,70
875027,311,70
875037,316,70
875047,332,70
875058,319,70
875067,337,70
875078,319,70
875089,319,70
875099,331,70
875109,310,70
875119,326,70
875130,320,70
875140,312,70
875150,331,70
875160,287,70
875170,274,70
875181,410,70
875191,614,70
875201,652,70
875212,498,70
875222,241,70
875232,340,70
875243,297,70
875252,310,70
875263,310,70
875273,299,70
875283,323,70
875294,308,70
875304,318,70
875315,328,70
875325,315,70
875335,336,70
875345,328,70
875355,332,70
875365,349,70
875375,334,70
875386,353,70
875396,359,70
875406,356,70
875416,380,70
875428,365,70
875438,378,70
875448,389,70
875458,367,70
875469,366,70
875479,332,70
875488,313,70
875500,317,70
875509,294,70
875519,306,70
875530,304,70
875540,293,70
875551,313,70
875561,298,70
875570,304,70
875582,314,70
875591,300,70
875602,320,70
875612,312,70
875622,309,70
875633,324,70
875642,307,70
875653,321,70
875664,320,70
875673,308,70
875684,327,70
875694,309,70
875705,316,70
875715,325,70
875725,306,70
875735,325,70
875746,316,70
875756,312,70
875766,328,70
875776,309,70
875787,324,70
875796,324,70
875807,312,70
875817,331,70
875827,312,70
875837,321,70
875848,327,70
875858,318,70
875869,339,70
875878,329,70
875889,322,70
875899,335,70
875910,315,70
875920,327,70
875930,327,70
875941,312,70
875950,331,70
875961,315,70
875971,296,70
875981,278,70
875992,392,70
876002,642,70
876012,652,70
876023,533,70
876033,262,70
876042,323,70
876054,312,70
876064,308,70
876074,298,70
876085,320,70
876095,306,70
876104,312,70
876115,325,70
876126,310,70
876136,329,70
876146,323,70
876156,321,70
876166,341,70
876177,326,70
876187,341,70
876197,347,70
876207,340,70
876218,366,70
876228,356,70
876238,363,70
876248,378,70
876259,361,70
876269,374,70
876280,351,70
876290,324,70
876300,325,70
876310,297,70
876320,305,70
876330,303,70
876341,290,70
876351,310,70
876362,296,70
876372,300,70
876382,313,70
876392,295,70
876402,313,70
876413,308,70
876423,303,70
876433,320,70
876444,301,70
876453,313,70
876464,317,70
876475,302,70
876485,321,70
876495,307,70
876505,310,70
876515,321,70
876525,302,70
876535,319,70
876546,314,70
876557,307,70
876566,326,70
876577,307,70
876587,318,70
876597,322,70
876607,306,70
876617,328,70
876629,315,70
876639,316,70
876648,329,70
876659,308,70
876669,326,70
876680,320,70
876689,318,70
876700,342,70
876711,322,70
876721,328,70
876731,329,70
876741,314,70
876751,334,70
876762,319,70
876771,318,70
876783,332,70
876793,311,70
876803,314,70
876813,268,70
876823,337,70
876834,591,70
876843,652,70
876854,649,70
876865,286,70
876875,312,70
876885,325,70
876896,297,70
876905,300,70
876916,314,70
876926,297,70
876937,315,70
876946,315,70
876957,307,70
876968,328,70
876977,313,70
876987,324,70
876998,334,70
877008,319,70
877019,343,70
877028,336,70
877039,340,70
877050,360,70
877059,345,70
877069,367,70
877080,367,70
877090,360,70
877101,378,70
877110,348,70
877121,337,70
877132,327,70
877142,298,70
877152,313,70
877162,299,70
877172,295,70
877183,310,70
877192,290,70
877203,307,70
877213,308,70
877224,298,70
877234,319,70
877244,301,70
877254,306,70
877265,314,70
877275,296,70
877285,317,70
877296,308,70
877306,304,70
877316,319,70
877326,300,70
877336,315,70
877347,311,70
877357,300,70
877368,321,70
877377,302,70
877388,309,70
877398,317,70
877408,302,70
877418,320,70
877429,309,70
877439,308,70
877449,323,70
877459,304,70
877470,318,70
877480,318,70
877490,305,70
877501,325,70
877511,307,70
877521,325,70
877531,332,70
877542,312,70
877552,329,70
877562,315,70
877573,312,70
877583,327,70
877593,306,70
877604,321,70
877614,320,70
877624,304,70
877634,295,70
877644,267,70
877655,436,70
877665,650,70
877675,652,70
877686,439,70
877695,256,70
877707,325,70
877717,311,70
877726,289,70
877737,304,70
877748,308,70
877757,296,70
877768,321,70
877778,306,70
877788,315,70
877799,328,70
877808,310,70
877819,334,70
877830,328,70
877840,326,70
877850,348,70
877860,336,70
877870,354,70
877881,364,70
877891,356,70
877902,380,70
877911,370,70
877921,376,70
877933,378,70
877942,339,70
877952,335,70
877962,311,70
877973,296,70
877983,309,70
877994,291,70
878004,302,70
878014,303,70
878024,292,70
878035,311,70
878044,299,70
878055,305,70
878065,318,70
878075,299,70
878086,317,70
878096,313,70
878107,306,70
878117,324,70
878127,304,70
878137,314,70
878148,320,70
878157,302,70
878168,322,70
878178,308,70
878189,310,70
878199,322,70
878209,304,70
878220,323,70
878230,315,70
878240,309,70
878251,328,70
878260,307,70
878271,322,70
878281,322,70
878291,309,70
878302,339,70
878312,324,70
878322,323,70
878333,331,70
878343,310,70
878352,327,70
878363,323,70
878373,314,70
878384,330,70
878394,311,70
878404,318,70
878415,284,70
878424,275,70
878435,495,70
878445,651,71
878455,651,71
878466,349,71
878476,266,71
878486,334,71
878496,300,71
878507,295,71
878518,315,71
878528,298,71
878537,312,71
878547,319,71
878558,307,71
878569,329,71
878579,318,71
878589,321,71
878600,338,71
878610,321,71
878620,341,71
878630,344,71
878641,339,71
878651,365,71
878660,352,71
878671,366,71
878681,376,71
878692,363,71
878703,381,71
878712,356,71
878723,334,71
878733,328,71
878743,296,71
878753,305,71
878763,298,71
878774,289,71
878785,308,71
878794,291,71
878805,301,71
878815,308,71
878825,292,71
878836,312,71
878846,303,71
878856,302,71
878866,319,71
878877,299,71
878887,315,71
878897,312,71
878907,300,71
878917,320,71
878928,304,71
878937,310,71
878948,317,71
878959,299,71
878969,319,71
878979,309,71
878990,306,71
878999,322,71
879010,302,71
879020,318,71
879030,317,71
879041,306,71
879051,326,71
879062,309,71
879072,316,71
879082,325,71
879092,307,71
879103,325,71
879113,316,71
879123,314,71
879133,341,71
879144,318,71
879153,333,71
879164,328,71
879175,314,71
879185,333,71
879195,315,71
879205,322,71
879215,329,71
879226,311,71
879235,328,71
879246,286,71
879257,265,71
879266,443,71
879277,649,71
879287,653,71
879297,528,71
879307,257,71
879318,346,71
879329,299,71
879338,302,71
879348,312,71
879359,298,71
879369,318,71
879380,312,71
879390,309,71
879399,328,71
879411,311,71
879420,327,71
879431,330,71
879441,318,71
879451,342,71
879461,330,71
879472,338,71
879482,355,71
879492,341,71
879502,366,71
879513,361,71
879523,361,71
879533,378,71
879544,356,71
879554,352,71
879564,334,71
879575,305,71
879584,316,71
879596,296,71
879606,300,71
879616,309,71
879626,292,71
879636,312,71
879646,303,71
879657,300,71
879667,318,71
879677,300,71
879687,313,71
879697,315,71
879708,301,71
879718,322,71
879729,305,71
879739,309,71
879749,320,71
879759,301,71
879769,318,71
879780,311,71
879790,304,71
879800,322,71
879811,304,71
879821,316,71
879831,318,71
879842,303,71
879851,324,71
879862,310,71
879872,313,71
879882,325,71
879893,306,71
879903,325,71
879913,318,71
879924,311,71
879934,331,71
879944,312,71
879955,326,71
879965,326,71
879975,313,71
879985,332,71
879996,322,71
880005,333,71
880015,340,71
880027,319,71
880036,334,71
880046,327,71
880057,318,71
880067,335,71
880078,315,71
880088,325,71
880098,328,71
880108,303,71
880118,281,71
880129,325,71
880139,556,71
880149,653,71
880160,652,71
880170,321,71
880180,317,71
880191,315,71
880201,312,71
880211,296,71
880221,306,71
880232,316,71
880242,300,71
880252,322,71
880263,313,71
880273,314,71
880283,329,71
880293,312,71
880303,331,71
880314,332,71
880324,325,71
880334,349,71
880345,339,71
880355,353,71
880365,364,71
880376,353,71
880386,376,71
880396,368,71
880406,369,71
880416,370,71
880427,331,71
880437,328,71
880447,311,71
880458,294,71
880468,311,71
880478,291,71
880488,300,71
880499,307,71
880508,291,71
880519,312,71
880530,299,71
880539,301,71
880549,316,71
880560,297,71
880570,311,71
880581,310,71
880590,302,71
880601,317,71
880612,301,71
880621,310,71
880632,314,71
880643,299,71
880652,319,71
880663,304,71
880673,303,71
880684,320,71
880694,301,71
880703,314,71
880715,313,71
880724,303,71
880735,321,71
880745,303,71
880755,312,71
880766,321,71
880775,304,71
880786,325,71
880796,315,71
880806,310,71
880817,328,71
880827,310,71
880837,324,71
880848,318,71
880857,321,71
880868,340,71
880879,321,71
880889,326,71
880899,333,71
880909,310,71
880919,329,71
880930,322,71
880940,316,71
880950,331,71
880960,311,71
880970,294,71
880981,289,71
880991,449,71
881002,650,71
881012,652,71
881022,384,71
881032,280,71
881042,325,71
881052,315,71
881063,308,71
881073,307,71
881084,323,71
881094,306,71
881104,323,71
881115,325,71
881125,313,71
881135,334,71
881146,320,71
881156,330,71
881166,343,71
881176,329,71
881186,349,71
881196,349,71
881206,352,71
881217,373,71
881227,361,71
881238,377,71
881248,384,71
881258,374,71
881269,382,71
881278,343,71
881289,326,71
881300,321,71
881309,292,71
881319,307,71
881330,298,71
881341,290,71
881351,308,71
881361,289,71
881371,305,71
881381,307,71
881391,295,71
881402,317,71
881412,301,71
881422,306,71
881432,320,71
881442,302,71
881453,316,71
881464,311,71
881474,305,71
881484,322,71
881494,305,71
881504,316,71
881515,317,71
881525,304,71
881535,321,71
881545,309,71
881555,311,71
881566,324,71
881576,304,71
881586,323,71
881597,317,71
881607,309,71
881618,327,71
881628,310,71
881638,319,71
881647,322,71
881659,318,71
881669,337,71
881679,322,71
881690,321,71
881700,331,71
881710,314,71
881719,329,71
881731,323,71
881741,313,71
881751,332,71
881761,313,71
881771,296,71
881781,282,71
881792,411,71
881802,645,71
881813,651,71
881823,429,71
881832,267,71
881843,325,71
881853,313,71
881863,309,71
881874,301,71
881885,323,71
881894,307,71
881905,318,71
881915,327,71
881926,313,71
881936,335,71
881945,325,71
881956,328,71
881967,345,71
881977,332,71
881987,351,71
881997,354,71
882008,348,71
882018,374,71
882028,363,71
882038,374,71
882049,386,71
882058,368,71
882069,376,71
882080,344,71
882090,320,71
882100,317,71
882110,289,71
882120,302,71
882130,297,71
882141,287,71
882152,306,71
882161,291,71
882172,299,71
882182,308,71
882192,292,71
882203,313,71
882213,304,71
882223,301,71
882234,318,71
882243,300,71
882254,314,71
882265,312,71
882274,300,71
882284,319,71
882295,302,71
882305,309,71
882315,316,71
882325,300,71
882336,320,71
882346,309,71
882357,306,71
882367,323,71
882377,304,71
882387,320,71
882398,319,71
882407,308,71
882419,327,71
882428,311,71
882439,318,71
882449,326,71
882459,308,71
882469,327,71
882480,319,71
882490,314,71
882501,331,71
882511,324,71
882521,334,71
882531,333,71
882541,315,71
882552,334,71
882561,318,71
882572,321,71
882583,331,71
882593,311,71
882603,328,71
882613,318,71
882624,271,71
882634,295,71
882643,470,71
882655,652,72
882665,653,72
882675,415,72
882685,294,72
882695,326,72
882706,300,72
882716,313,72
882726,296,72
882737,315,72
882746,311,72
882756,307,72
882768,326,72
882777,310,72
882788,323,72
882798,328,72
882808,316,72
882819,339,72
882828,327,72
882839,336,72
882850,352,72
882859,339,72
882870,361,72
882880,361,72
882891,360,72
882901,379,72
882911,364,72
882921,369,72
882931,355,72
882942,320,72
882951,325,72
882962,301,72
882972,300,72
882982,313,72
882993,291,72
883003,311,72
883014,306,72
883024,298,72
883034,317,72
883044,299,72
883055,310,72
883065,315,72
883075,300,72
883086,320,72
883095,306,72
883105,307,72
883116,320,72
883127,300,72
883137,314,72
883146,312,72
883158,304,72
883167,322,72
883178,304,72
883187,313,72
883198,319,72
883209,303,72
883219,323,72
883229,311,72
883239,312,72
883250,325,72
883260,306,72
883270,322,72
883280,318,72
883291,310,72
883301,329,72
883311,312,72
883322,320,72
883331,326,72
883342,309,72
883352,327,72
883363,317,72
883373,316,72
883383,338,72
883393,323,72
883404,336,72
883414,330,72
883424,315,72
883434,335,72
883445,316,72
883456,324,72
883465,329,72
883475,312,72
883485,331,72
883496,299,72
883507,260,72
883517,383,72
883527,603,72
883537,653,72
883547,638,72
883558,264,72
883568,342,72
883578,307,72
883589,301,72
883598,313,72
883609,297,72
883619,319,72
883629,312,72
883639,310,72
883650,329,72
883660,310,72
883671,326,72
883681,328,72
883691,318,72
883701,343,72
883712,329,72
883722,340,72
883732,354,72
883743,344,72
883753,368,72
883762,363,72
883773,361,72
883784,381,72
883794,360,72
883804,359,72
883814,340,72
883824,309,72
883835,317,72
883845,294,72
883855,297,72
883865,308,72
883876,288,72
883886,308,72
883896,302,72
883907,297,72
883917,315,72
883927,297,72
883937,311,72
883947,311,72
883958,298,72
883968,318,72
883979,305,72
883989,308,72
883999,318,72
884009,298,72
884020,317,72
884030,310,72
884041,304,72
884050,320,72
884061,301,72
884070,314,72
884082,315,72
884092,302,72
884102,320,72
884112,304,72
884122,309,72
884132,322,72
884143,303,72
884153,323,72
884163,316,72
884174,308,72
884183,326,72
884194,308,72
884204,318,72
884215,324,72
884225,310,72
884235,328,72
884245,317,72
884255,318,72
884266,326,72
884276,318,72
884286,337,72
884297,329,72
884307,317,72
884317,332,72
884328,315,72
884338,322,72
884348,324,72
884358,309,72
884368,329,72
884379,313,72
884389,276,72
884400,305,72
884410,487,72
884420,651,71
884430,651,71
884440,317,71
884451,302,71
884461,322,71
884471,303,71
884482,313,71
884491,297,71
884502,319,71
884512,312,71
884522,313,71
884533,329,71
884544,313,71
884553,331,71
884564,327,71
884574,323,71
884584,343,71
884595,332,71
884604,343,71
884615,355,71
884626,346,71
884636,373,71
884646,365,71
884656,367,71
884666,388,71
884677,370,71
884687,374,71
