Timestamp,ECGValue,BPM
162440,324,71
162450,330,71
162460,323,71
162471,337,71
162481,337,71
162491,340,71
162502,352,71
162512,349,71
162522,361,71
162533,368,71
162542,367,71
162553,380,71
162563,376,71
162573,378,71
162583,368,71
162594,337,71
162604,326,71
162614,309,71
162625,301,71
162635,305,71
162644,295,71
162655,302,71
162666,304,71
162676,298,71
162686,308,71
162696,301,71
162707,305,71
162717,310,71
162727,301,71
162737,310,71
162748,306,71
162758,303,71
162769,313,71
162779,301,71
162788,308,71
162799,309,71
162809,304,71
162820,313,71
162830,305,71
162840,307,71
162851,314,71
162861,303,71
162871,313,71
162881,310,71
162891,308,71
162902,317,71
162911,309,71
162922,315,71
162933,317,71
162943,310,71
162953,322,71
162963,314,71
162974,317,71
162984,322,71
162993,313,71
163005,323,71
163015,319,71
163024,317,71
163036,326,71
163046,316,71
163056,323,71
163066,326,71
163076,319,71
163087,331,71
163096,323,71
163106,327,71
163117,331,71
163127,320,71
163138,332,71
163148,335,71
163158,335,71
163169,340,71
163178,329,71
163189,332,71
163200,331,71
163210,326,71
163220,333,71
163230,324,71
163241,327,71
163251,332,71
163261,316,71
163271,284,71
163282,295,71
163292,503,69
163302,652,69
163312,652,69
163322,377,69
163333,299,69
163343,331,69
163353,311,69
163363,307,69
163374,310,69
163384,319,69
163395,312,69
163405,324,69
163415,322,69
163425,321,69
163436,332,69
163446,324,69
163456,332,69
163467,335,69
163477,334,69
163487,349,69
163497,344,69
163507,352,69
163518,362,69
163528,359,69
163538,372,69
163548,372,69
163559,373,69
163569,379,69
163579,352,69
163590,336,69
163600,318,69
163610,299,69
163621,303,69
163631,295,69
163641,295,69
163651,302,69
163661,293,69
163671,303,69
163682,300,69
163692,298,69
163702,307,69
163713,299,69
163723,305,69
163733,306,69
163744,300,69
163753,310,69
163763,303,69
163774,304,69
163785,309,69
163795,300,69
163805,309,69
163815,306,69
163826,302,69
163836,313,69
163846,303,69
163856,310,69
163867,311,69
163877,303,69
163887,316,69
163898,308,69
163907,309,69
163918,316,69
163929,307,69
163939,317,69
163949,315,69
163959,312,69
163969,321,69
163980,312,69
163990,319,69
164000,321,69
164010,314,69
164021,326,69
164031,317,69
164042,320,69
164052,327,69
164062,317,69
164072,327,69
164082,324,69
164093,322,69
164103,328,69
164113,327,69
164123,338,69
164134,336,69
164144,325,69
164154,337,69
164164,326,69
164175,324,69
164185,329,69
164195,319,69
164205,325,69
164215,323,69
164226,319,69
164236,328,69
164246,289,69
164256,270,69
164267,422,69
164278,647,68
164287,653,68
164298,531,68
164308,262,68
164318,346,68
164329,306,68
164339,311,68
164349,311,68
164360,310,68
164370,320,68
164380,313,68
164391,321,68
164401,326,68
164411,321,68
164421,333,68
164431,329,68
164442,332,68
164452,342,68
164462,337,68
164472,349,68
164483,354,68
164493,356,68
164503,370,68
164513,366,68
164524,375,68
164534,381,68
164545,373,68
164554,372,68
164565,342,68
164575,322,68
164585,315,68
164595,299,68
164606,303,68
164616,299,68
164626,296,68
164637,305,68
164647,296,68
164657,303,68
164668,306,68
164678,300,68
164687,310,68
164698,304,68
164709,305,68
164719,312,68
164729,303,68
164740,311,68
164749,308,68
164760,303,68
164770,313,68
164780,303,68
164790,308,68
164801,311,68
164811,303,68
164821,313,68
164832,308,68
164842,308,68
164852,316,68
164863,306,68
164873,315,68
164883,314,68
164894,308,68
164903,318,68
164915,311,68
164924,315,68
164935,318,68
164945,311,68
164955,320,68
164966,314,68
164976,314,68
164986,322,68
164996,314,68
165005,322,68
165017,320,68
165027,316,68
165037,325,68
165048,317,68
165058,322,68
165068,323,68
165079,321,68
165088,339,68
165098,329,68
165109,326,68
165119,334,68
165129,323,68
165139,327,68
165150,324,68
165160,318,68
165170,328,68
165181,318,68
165191,322,68
165202,323,68
165211,283,68
165222,273,68
165232,428,68
165242,649,68
165252,652,68
165263,487,68
165273,267,68
165284,339,68
165294,302,68
165304,312,68
165315,306,68
165324,312,68
165335,317,68
165345,312,68
165355,325,68
165366,321,68
165376,322,68
165386,332,68
165397,327,68
165406,336,68
165417,340,68
165427,340,68
165437,353,68
165448,350,68
165457,361,68
165469,370,68
165479,366,68
165488,379,68
165499,376,68
165509,374,68
165520,369,68
165530,337,68
165540,324,68
165551,310,68
165561,298,68
165570,305,68
165581,294,68
165591,299,68
165601,302,68
165612,295,68
165622,306,68
165632,302,68
165642,302,68
165653,309,68
165664,302,68
165673,309,68
165684,308,68
165694,302,68
165705,312,68
165715,304,68
165724,308,68
165735,310,68
165746,304,68
165755,313,68
165766,309,68
165776,308,68
165787,315,68
165797,307,68
165807,314,68
165817,313,68
165828,308,68
165838,317,68
165848,309,68
165858,314,68
165869,319,68
165879,309,68
165889,319,68
165899,314,68
165910,315,68
165920,324,68
165930,312,68
165941,318,68
165951,320,68
165961,315,68
165971,324,68
165981,316,68
165992,322,68
166002,325,68
166012,319,68
166022,327,68
166033,326,68
166043,333,68
166053,338,68
166064,324,68
166073,335,68
166084,331,68
166094,321,68
166105,330,68
166115,320,68
166125,322,68
166135,326,68
166145,316,68
166156,325,68
166167,290,68
166176,266,68
166187,424,68
166197,646,67
166207,652,67
166218,512,67
166228,256,67
166238,345,67
166249,304,67
166258,306,67
166269,315,67
166279,306,67
166289,320,67
166300,316,67
166310,315,67
166320,327,67
166331,319,67
166341,330,67
166351,330,67
166361,329,67
166371,342,67
166382,338,67
166392,345,67
166402,357,67
166413,354,67
166423,368,67
166433,370,67
166443,371,67
166453,382,67
166464,374,67
166474,367,67
166484,344,67
166495,317,67
166505,312,67
166515,298,67
166525,298,67
166536,301,67
166546,292,67
166556,302,67
166567,298,67
166577,299,67
166587,309,67
166597,298,67
166607,305,67
166618,307,67
166628,302,67
166639,313,67
166649,304,67
166659,307,67
166669,311,67
166679,302,67
166690,312,67
166700,307,67
166710,307,67
166720,314,67
166731,305,67
166741,313,67
166751,312,67
166762,306,67
166772,316,67
166783,309,67
166792,312,67
166802,317,67
166813,308,67
166823,318,67
166834,314,67
166844,313,67
166854,322,67
166864,314,67
166874,321,67
166885,321,67
166895,316,67
166905,326,67
166915,320,67
166926,323,67
166936,327,67
166946,319,67
166957,329,67
166967,322,67
166977,326,67
166988,342,67
166998,331,67
167008,332,67
167018,336,67
167028,327,67
167039,331,67
167049,322,67
167059,326,67
167070,328,67
167080,318,67
167090,328,67
167100,322,67
167110,291,67
167120,275,67
167131,411,67
167141,648,66
167151,653,66
167162,523,66
167172,264,66
167182,337,66
167192,309,66
167204,312,66
167213,307,66
167223,316,66
167234,316,66
167244,316,66
167254,326,66
167265,320,66
167275,330,66
167285,331,66
167296,328,66
167306,342,66
167316,338,66
167326,346,66
167337,356,66
167347,352,66
167357,367,66
167368,368,66
167378,370,66
167387,382,66
167398,376,66
167409,382,66
167418,371,66
167429,341,66
167440,329,66
167449,308,66
167460,304,66
167470,306,66
167480,295,66
167491,304,66
167501,301,66
167511,300,66
167521,308,66
167532,299,66
167542,307,66
167552,307,66
167562,301,66
167573,311,66
167583,304,66
167593,307,66
167603,311,66
167613,302,66
167624,310,66
167635,307,66
167645,304,66
167655,312,66
167664,303,66
167675,309,66
167685,309,66
167695,304,66
167706,313,66
167716,307,66
167727,310,66
167737,314,66
167747,308,66
167757,317,66
167768,313,66
167778,310,66
167788,319,66
167798,312,66
167809,318,66
167819,318,66
167829,312,66
167840,322,66
167850,315,66
167860,317,66
167870,323,66
167880,313,66
167891,325,66
167901,319,66
167912,322,66
167922,338,66
167932,328,66
167942,330,66
167952,332,66
167963,322,66
167972,330,66
167983,320,66
167994,322,66
168003,324,66
168013,315,66
168025,324,66
168035,319,66
168045,293,66
168055,271,66
168065,395,66
168076,637,65
168086,652,65
168096,549,65
168107,259,65
168117,335,65
168127,309,65
168137,309,65
168147,304,65
168158,314,65
168168,313,65
168179,313,65
168189,324,65
168199,318,65
168209,327,65
168220,331,65
168230,326,65
168240,340,65
168250,337,65
168260,343,65
168271,352,65
168281,349,65
168291,364,65
168301,367,65
168312,368,65
168322,381,65
168332,376,65
168343,382,65
168353,372,65
168363,341,65
168373,329,65
168383,306,65
168394,302,65
168404,304,65
168415,293,65
168424,303,65
168434,300,65
168445,298,65
168455,308,65
168465,299,65
168476,306,65
168486,308,65
168496,302,65
168506,313,65
168517,306,65
168527,307,65
168537,313,65
168548,304,65
168558,313,65
168568,310,65
168579,306,65
168589,315,65
168599,306,65
168610,312,65
168619,313,65
168630,305,65
168641,316,65
168651,309,65
168660,310,65
168671,316,65
168681,307,65
168691,316,65
168702,314,65
168712,312,65
168722,321,65
168733,312,65
168743,319,65
168753,320,65
168763,313,65
168773,323,65
168784,316,65
168793,317,65
168804,325,65
168815,317,65
168825,324,65
168835,324,65
168845,327,65
168856,336,65
168866,324,65
168877,328,65
168887,331,65
168897,318,65
168907,326,65
168918,319,65
168928,318,65
168938,324,65
168948,315,65
168959,324,65
168969,308,65
168979,262,65
168989,330,65
169000,559,64
169010,652,64
169020,649,64
169031,268,64
169041,322,64
169051,318,64
169061,301,64
169071,312,64
169082,303,64
169092,317,64
169102,316,64
169112,314,64
169123,325,64
169133,318,64
169144,328,64
169153,333,64
169164,328,64
169174,341,64
169184,339,64
169195,346,64
169205,356,64
169215,354,64
169226,370,64
169236,370,64
169246,371,64
169256,383,64
169267,376,64
169277,375,64
169287,355,64
169297,325,64
169307,319,64
169318,302,64
169328,299,64
169338,303,64
169349,294,64
169358,304,64
169369,303,64
169380,299,64
169389,309,64
169400,302,64
169410,308,64
169420,309,64
169431,302,64
169441,312,64
169451,306,64
169462,307,64
169472,313,64
169482,303,64
169492,312,64
169503,310,64
169513,305,64
169523,314,64
169534,306,64
169544,311,64
169554,314,64
169564,306,64
169575,316,64
169585,310,64
169595,311,64
169605,316,64
169616,308,64
169626,316,64
169636,315,64
169646,311,64
169657,322,64
169666,313,64
169677,318,64
169687,321,64
169697,314,64
169708,324,64
169718,318,64
169729,321,64
169739,326,64
169749,317,64
169759,325,64
169770,325,64
169780,328,64
169790,338,64
169800,326,64
169810,332,64
169820,333,64
169831,321,64
169842,331,64
169852,323,64
169862,320,64
169872,326,64
169882,316,64
169892,324,64
169903,304,64
169914,261,64
169924,366,64
169934,601,63
169944,652,63
169954,628,63
169965,255,63
169974,337,63
169985,314,63
169996,302,63
170006,315,63
170016,306,63
170026,319,63
170036,318,63
170047,316,63
170057,326,63
170067,322,63
170077,328,63
170088,333,63
170098,329,63
170109,341,63
170119,340,63
170129,344,63
170139,356,63
170150,353,63
170159,368,63
170170,370,63
170180,371,63
170190,383,63
170200,375,63
170210,369,63
170221,348,63
170232,318,63
170242,313,63
170252,300,63
170262,299,63
170273,304,63
170283,296,63
170293,303,63
170303,304,63
170314,300,63
170323,310,63
170334,303,63
170345,306,63
170355,311,63
170365,303,63
170375,314,63
170386,307,63
170396,307,63
170406,316,63
170417,304,63
170427,313,63
170437,310,63
170447,306,63
170458,315,63
170468,306,63
170478,311,63
170488,313,63
170499,306,63
170509,315,63
170519,311,63
170529,311,63
170539,318,63
170549,308,63
170560,317,63
170570,317,63
170581,312,63
170591,322,63
170601,312,63
170611,318,63
170622,322,63
170632,315,63
170642,323,63
170652,318,63
170663,318,63
170673,326,63
170684,318,63
170694,326,63
170704,324,63
170714,317,63
170724,332,63
170735,330,63
170744,331,63
170755,329,63
170766,324,63
170776,334,63
170785,322,63
170795,320,63
170807,325,63
170817,315,63
170827,322,63
170837,319,63
170847,314,63
170858,296,63
170868,260,63
170877,410,63
170888,648,62
170898,652,62
170909,544,62
170919,256,62
170929,336,62
170940,312,62
170950,299,62
170960,311,62
170970,311,62
170980,308,62
170991,320,62
171001,314,62
171011,321,62
171022,326,62
171032,322,62
171042,334,62
171052,332,62
171062,335,62
171073,346,62
171084,342,62
171094,356,62
171104,362,62
171114,362,62
171124,375,62
171135,372,62
171145,381,62
171156,383,62
171166,360,62
171176,346,62
171186,320,62
171196,305,62
171207,305,62
171217,293,62
171227,299,62
171237,298,62
171248,295,62
171258,306,62
171268,296,62
171278,303,62
171289,306,62
171299,300,62
171309,309,62
171319,305,62
171329,304,62
171340,312,62
171351,302,62
171360,311,62
171371,310,62
171382,306,62
171392,314,62
171402,306,62
171412,310,62
171423,314,62
171433,304,62
171443,315,62
171453,310,62
171464,309,62
171474,316,62
171484,307,62
171494,316,62
171505,315,62
171514,310,62
171525,320,62
171535,313,62
171546,316,62
171556,321,62
171566,314,62
171576,323,62
171586,318,62
171597,316,62
171607,325,62
171618,316,62
171627,323,62
171638,322,62
171648,317,62
171659,327,62
171669,320,62
171678,324,62
171690,334,62
171700,330,62
171710,337,62
171720,328,62
171730,330,62
171741,334,62
171751,321,62
171761,329,62
171771,326,62
171781,318,62
171792,327,62
171802,319,62
171812,322,62
171822,290,62
171833,267,62
171843,449,62
171854,651,62
171863,652,62
171874,486,62
171884,262,62
171895,342,62
171905,308,62
171915,303,62
171926,315,62
171936,308,62
171945,314,62
171956,320,62
171966,315,62
171977,326,62
171987,324,62
171997,324,62
172008,335,62
172018,329,62
172028,339,62
172038,344,62
172049,343,62
172059,358,62
172069,357,62
172079,367,62
172090,376,62
172100,373,62
172110,387,62
172120,381,62
172130,363,62
172141,345,62
172151,315,62
172162,309,62
172172,301,62
172182,292,62
172192,301,62
172203,294,62
172212,297,62
172223,303,62
172233,294,62
172244,304,62
172254,302,62
172264,302,62
172274,310,62
172285,301,62
172295,308,62
172305,308,62
172315,303,62
172326,313,62
172336,304,62
172347,307,62
172357,311,62
172367,301,62
172376,311,62
172387,308,62
172397,304,62
172408,314,62
172417,305,62
172428,311,62
172439,311,62
172448,305,62
172459,316,62
172469,309,62
172480,313,62
172489,317,62
172500,309,62
172511,320,62
172521,315,62
172531,313,62
172541,321,62
172552,312,62
172562,320,62
172572,320,62
172582,316,62
172593,325,62
172602,317,62
172613,321,62
172624,326,62
172633,317,62
172644,328,62
172654,323,62
172664,321,62
172675,340,62
172685,331,62
172696,335,62
172706,333,62
172716,328,62
172726,335,62
172737,324,62
172747,326,62
172757,329,62
172767,317,62
172778,325,62
172788,321,62
172798,316,62
172809,283,62
172819,278,62
172829,485,62
172839,651,62
172849,653,62
172859,417,62
172869,278,62
172880,334,62
172890,307,62
172900,301,62
172911,313,62
172921,311,62
172931,312,62
172941,322,62
172952,315,62
172963,324,62
172973,326,62
172983,324,62
172993,335,62
173003,330,62
173013,337,62
173024,347,62
173033,344,62
173044,360,62
173055,363,62
173064,367,62
173075,379,62
173085,374,62
173096,385,62
173106,383,62
173116,359,62
173127,345,62
173137,317,62
173147,305,62
173157,304,62
173168,293,62
173178,301,62
173188,297,62
173198,296,62
173209,305,62
173219,297,62
173229,304,62
173239,306,62
173249,300,62
173260,310,62
173270,302,62
173281,306,62
173291,312,62
173301,302,62
173311,311,62
173321,306,62
173332,305,62
173342,313,62
173352,304,62
173363,310,62
173373,311,62
173383,304,62
173394,316,62
173404,308,62
173414,311,62
173424,315,62
173435,307,62
173445,318,62
173455,313,62
173465,311,62
173476,321,62
173486,311,62
173496,318,62
173506,320,62
173516,313,62
173526,323,62
173537,316,62
173548,318,62
173558,324,62
173568,316,62
173578,325,62
173588,322,62
173599,320,62
173609,328,62
173619,320,62
173629,325,62
173640,328,62
173649,321,62
173660,329,62
173670,331,62
173681,336,62
173691,336,62
173701,326,62
173712,336,62
173722,330,62
173732,324,62
173743,331,62
173752,319,62
173763,324,62
173773,324,62
173783,317,62
173794,326,62
173804,295,62
173814,265,62
173825,398,62
173834,633,62
173845,653,62
173855,597,62
173865,258,62
173876,343,62
173886,309,62
173896,307,62
173907,311,62
173917,307,62
173927,319,62
173937,315,62
173948,318,62
173958,325,62
173968,318,62
173979,330,62
173989,329,62
173999,328,62
174009,340,62
174019,337,62
174030,346,62
174039,354,62
174050,355,62
174061,371,62
174070,369,62
174081,378,62
174091,385,62
174101,380,62
174112,376,62
174122,349,62
174132,325,62
174142,318,62
174153,299,62
174163,301,62
174174,301,62
174184,295,62
174194,305,62
174205,298,62
174215,301,62
174225,306,62
174235,299,62
174245,307,62
174255,305,62
174266,302,62
174276,313,62
174287,303,62
174297,310,62
174307,311,62
174317,304,62
174327,313,62
174338,306,62
174348,309,62
174358,314,62
174369,305,62
174379,313,62
174389,309,62
174399,307,62
174409,317,62
174420,306,62
174430,312,62
174440,313,62
174450,307,62
174461,318,62
174471,312,62
174481,313,62
174491,320,62
174502,312,62
174512,320,62
174522,317,62
174532,315,62
174543,324,62
174553,315,62
174563,322,62
174574,324,62
174584,317,62
174594,328,62
174605,322,62
174615,322,62
174625,328,62
174636,319,62
174646,328,62
174656,327,62
174666,334,62
174677,339,62
174686,327,62
174696,333,62
174707,334,62
174718,324,62
174728,332,62
174738,324,62
174748,324,62
174759,329,62
174769,318,62
174779,327,62
174789,312,62
174799,266,62
174810,327,62
174820,557,62
174831,652,62
174841,651,62
174851,300,62
174861,321,62
174872,325,62
174882,304,62
174891,316,62
174903,308,62
174913,317,62
174922,317,62
174933,317,62
174944,327,62
174954,320,62
174964,327,62
174974,331,62
174985,327,62
174995,339,62
175005,337,62
175015,342,62
175026,354,62
175036,352,62
175046,367,62
175056,371,62
175067,373,62
175077,387,62
175087,379,62
175097,378,62
175108,360,62
175118,330,62
175128,320,62
175138,303,62
175148,298,62
175159,303,62
175169,295,62
175180,303,62
175190,302,62
175200,297,62
175210,307,62
175221,301,62
175230,306,62
175241,307,62
175251,304,62
175261,311,62
175272,306,62
175282,309,62
175292,315,62
175303,303,62
175313,312,62
175323,312,62
175333,304,62
175344,315,62
175354,307,62
175364,311,62
175374,314,62
175384,307,62
175395,315,62
175405,310,62
175415,312,62
175426,317,62
175436,310,62
175447,318,62
175457,316,62
175467,311,62
175477,319,62
175488,312,62
175498,318,62
175508,320,62
175518,312,62
175528,321,62
175539,317,62
175549,319,62
175560,326,62
175570,313,62
175580,322,62
175590,320,62
175600,315,62
175611,326,62
175621,315,62
175631,323,62
175642,334,62
175651,323,62
175662,331,62
175673,324,62
175682,323,62
175692,327,62
175702,315,62
175713,324,62
175724,320,62
175734,310,62
175744,320,62
175755,312,62
175765,312,62
175775,274,62
175785,284,62
175796,503,62
175805,651,62
175816,649,62
175827,299,62
175837,290,62
175847,328,62
175857,300,62
175867,301,62
175878,313,62
175887,306,62
175898,311,62
175909,315,62
175918,314,62
175929,324,62
175939,318,62
175949,321,62
175960,335,62
175970,328,62
175980,338,62
175991,347,62
176001,347,62
176010,362,62
176021,362,62
176032,372,62
176041,381,62
176051,377,62
176062,387,62
176072,378,62
176082,358,62
176093,335,62
176103,300,62
176114,298,62
176124,290,62
176134,282,62
176145,288,62
176154,278,62
176165,281,62
176175,287,62
176185,274,62
176195,285,62
176206,286,62
176216,283,62
176227,292,62
176237,284,62
176247,294,62
176258,294,62
176268,285,62
176278,297,62
176288,289,62
176299,292,62
176309,297,62
176319,290,62
176329,300,62
176340,297,62
176349,295,62
176360,306,62
176370,300,62
176380,305,62
176391,307,62
176401,302,62
176411,313,62
176422,306,62
176431,314,62
176442,318,62
176452,309,62
176463,317,62
176473,316,62
176483,315,62
176494,325,62
176503,314,62
176514,322,62
176524,322,62
176535,317,62
176545,332,62
176555,331,62
176565,329,62
176576,334,62
176586,320,62
176596,329,62
176606,326,62
176616,324,62
176627,333,62
176636,322,62
176647,329,62
176658,318,62
176668,281,62
176678,354,62
176689,564,62
176698,650,62
176709,569,62
176719,248,62
176730,336,62
176740,328,62
176750,313,62
176761,331,62
176770,321,62
176781,330,62
176792,333,62
176801,332,62
176812,345,62
176822,336,62
176832,343,62
176843,349,62
176852,347,62
176863,357,62
176873,356,62
176883,360,62
176894,377,62
176904,376,62
176915,386,62
176925,392,62
176934,391,62
176946,406,62
176956,395,62
176966,385,62
176976,361,62
176987,327,62
176996,318,62
177007,305,62
177017,299,62
177028,305,62
177038,297,62
177048,303,62
177058,303,62
177069,298,62
177078,311,62
177089,303,62
177099,306,62
177109,313,62
177119,306,62
177130,315,62
177141,310,62
177151,308,62
177160,317,62
177171,309,62
177181,314,62
177192,313,62
177201,306,62
177212,315,62
177223,307,62
177233,311,62
177243,316,62
177253,306,62
177264,316,62
177274,313,62
177284,311,62
177294,319,62
177304,309,62
177315,316,62
177325,317,62
177336,310,62
177345,320,62
177356,312,62
177366,314,62
177376,319,62
177387,311,62
177396,321,62
177407,316,62
177418,312,62
177428,321,62
177438,309,62
177448,329,62
177459,328,62
177469,320,62
177479,326,62
177489,315,62
177500,318,62
177509,324,62
177520,314,62
177531,323,62
177541,318,62
177551,312,62
177561,278,62
177572,278,62
177582,492,62
177592,652,63
177602,652,63
177612,381,63
177622,283,63
177633,326,63
177643,300,63
177654,295,63
177664,304,63
177674,304,63
177684,304,63
177695,314,63
177705,307,63
177715,315,63
177725,319,63
177735,314,63
177746,327,63
177756,321,63
177767,327,63
177777,336,63
177787,332,63
177797,347,63
177808,351,63
177817,355,63
177828,368,63
177838,364,63
177848,373,63
177859,371,63
177869,346,63
177880,332,63
177889,307,63
177900,298,63
177910,299,63
177920,288,63
177930,297,63
177940,293,63
177951,291,63
177961,301,63
177971,292,63
177981,301,63
177992,303,63
178002,297,63
178012,309,63
178023,302,63
178034,305,63
178044,312,63
178054,302,63
178064,312,63
178074,310,63
178085,304,63
178095,315,63
178105,306,63
178116,312,63
178126,315,63
178136,308,63
178146,319,63
178156,312,63
178167,315,63
178177,321,63
178188,313,63
178198,322,63
178208,318,63
178218,315,63
178228,326,63
178239,317,63
178249,324,63
178259,326,63
178270,319,63
178280,330,63
178289,324,63
178300,324,63
178310,331,63
178321,322,63
178331,332,63
178341,327,63
178351,326,63
178362,334,63
178372,325,63
178382,342,63
178393,339,63
178403,332,63
178413,339,63
178423,329,63
178434,329,63
178444,336,63
178454,325,63
178465,334,63
178475,329,63
178485,318,63
178495,283,63
178506,301,63
178516,526,63
178526,652,63
178537,653,63
178547,398,63
178557,301,63
178567,334,63
178578,312,63
178588,305,63
178598,314,63
178608,314,63
178618,313,63
178629,325,63
178639,318,63
178649,325,63
178660,329,63
178670,324,63
178680,337,63
178690,333,63
178700,337,63
178711,348,63
178721,343,63
178731,359,63
178742,364,63
178752,366,63
178762,381,63
178772,377,63
178783,385,63
178793,384,63
178803,356,63
178814,341,63
178824,317,63
178833,306,63
178844,308,63
178855,297,63
178865,305,63
178875,305,63
178885,301,63
178896,309,63
178906,302,63
178916,306,63
178926,310,63
178936,301,63
178947,313,63
178957,306,63
178967,307,63
178978,316,63
178987,304,63
178999,311,63
179008,309,63
179018,306,63
179029,316,63
179039,306,63
179049,310,63
179059,315,63
179070,308,63
179080,316,63
179090,310,63
179100,311,63
179111,318,63
179121,309,63
179132,316,63
179142,317,63
179152,311,63
179162,321,63
179173,314,63
179183,319,63
179193,321,63
179204,314,63
179214,327,63
179224,319,63
179234,320,63
179244,327,63
179255,319,63
179265,326,63
179275,324,63
179286,320,63
179296,333,63
179307,321,63
179317,325,63
179326,329,63
179337,324,63
179348,344,63
179358,333,63
179368,335,63
179378,336,63
179389,325,63
179399,333,63
179409,327,63
179419,321,63
179429,330,63
179440,317,63
179450,317,63
179460,276,63
179471,284,63
179481,496,63
179491,651,62
179501,651,62
179512,334,62
179522,282,62
179532,329,62
179542,299,62
179553,297,62
179563,307,62
179573,300,62
179584,309,62
179593,313,62
179603,306,62
179614,316,62
179625,318,62
179635,317,62
179645,328,62
179656,323,62
179665,334,62
179675,340,62
179685,338,62
179696,352,62
179706,356,62
179717,367,62
179727,374,62
179737,371,62
179747,384,62
179758,379,62
179768,356,62
179779,339,62
179789,310,62
179799,307,62
179809,301,62
179819,290,62
179830,300,62
179839,292,62
179850,298,62
179861,304,62
179871,296,62
179881,308,62
179892,303,62
179901,302,62
179912,313,62
179923,304,62
179933,313,62
179943,313,62
179953,309,62
179963,319,62
179974,308,62
179984,312,62
179994,318,62
180004,309,62
180014,318,62
180025,314,62
180035,310,62
180045,321,62
180056,313,62
180065,320,62
180076,321,62
180087,312,62
180097,325,62
180107,319,62
180117,321,62
180128,327,62
180138,318,62
180148,328,62
180159,325,62
180168,324,62
180179,333,62
180189,322,62
180200,331,62
180209,330,62
180220,321,62
180230,332,62
180241,327,62
180251,325,62
180261,344,62
180271,333,62
180282,340,62
180292,333,62
180301,330,62
180312,339,62
180322,328,62
180333,333,62
180343,331,62
180353,324,62
180363,332,62
180374,289,62
180384,291,62
180395,485,62
180405,650,63
180415,651,63
180425,354,63
180436,287,63
180446,344,63
180456,306,63
180467,316,63
180477,319,63
180487,312,63
180497,326,63
180507,320,63
180517,325,63
180528,334,63
180538,324,63
180548,336,63
180559,333,63
180569,333,63
180579,347,63
180590,343,63
180600,353,63
180610,360,63
180621,360,63
180631,378,63
180641,376,63
180651,381,63
180661,390,63
180672,375,63
180681,363,63
180692,333,63
180702,311,63
180712,308,63
180723,291,63
180733,294,63
180743,295,63
180754,287,63
180763,297,63
180774,292,63
180785,293,63
180795,300,63
180805,291,63
180815,301,63
180826,299,63
180836,297,63
180846,304,63
180856,295,63
180866,300,63
180877,302,63
180886,294,63
180897,303,63
180907,296,63
180918,297,63
180928,302,63
180938,293,63
180948,302,63
180959,299,63
180969,296,63
180979,306,63
180990,296,63
181000,304,63
181011,306,63
181021,299,63
181031,309,63
181042,304,63
181051,305,63
181062,312,63
181072,303,63
181082,314,63
181093,312,63
181103,308,63
181113,320,63
181123,311,63
181134,317,63
181144,321,63
181154,314,63
181165,326,63
181175,320,63
181185,322,63
181195,326,63
181206,320,63
181215,331,63
181226,336,63
181236,330,63
181247,337,63
181257,328,63
181267,330,63
181277,332,63
181287,324,63
181298,333,63
181308,325,63
181318,325,63
181329,332,63
181339,302,63
181349,273,63
181359,375,63
181370,622,63
181380,652,63
181390,636,63
181400,282,63
181411,340,63
181421,315,63
181431,314,63
181442,308,63
181451,311,63
181462,320,63
181472,314,63
181483,324,63
181493,322,63
181503,320,63
181513,333,63
181524,325,63
181534,335,63
181544,338,63
181555,335,63
181564,350,63
181575,348,63
181585,354,63
181596,368,63
181605,363,63
181616,376,63
181626,378,63
181637,375,63
181647,381,63
181657,352,63
181667,334,63
181678,320,63
181687,303,63
181698,308,63
181709,300,63
181718,300,63
181729,305,63
181739,298,63
181750,307,63
181760,306,63
181769,302,63
181781,312,63
181791,304,63
181801,308,63
181811,312,63
181822,304,63
181832,315,63
181842,308,63
181852,307,63
181863,315,63
181873,305,63
181883,314,63
181893,313,63
181903,308,63
181914,317,63
181924,309,63
181934,315,63
181945,317,63
181955,308,63
181965,319,63
181976,314,63
181986,315,63
181996,323,63
182006,314,63
182016,320,63
182027,319,63
182036,317,63
182047,327,63
182057,317,63
182068,322,63
182078,326,63
182088,317,63
182098,326,63
182109,321,63
182119,323,63
182130,330,63
182140,321,63
182150,329,63
182160,327,63
182170,324,63
182181,331,63
182191,325,63
182200,337,63
182212,340,63
182222,325,63
182232,339,63
182242,333,63
182252,327,63
182263,334,63
182273,321,63
182283,328,63
182293,325,63
182303,321,63
182314,331,63
182325,301,63
182334,264,63
182345,372,63
182355,609,63
182366,653,63
182376,633,63
182386,270,63
182396,339,63
182406,311,63
182416,307,63
182427,309,63
182437,304,63
182448,317,63
182458,314,63
182468,317,63
182478,324,63
182489,316,63
182499,326,63
182509,326,63
182519,325,63
182530,337,63
182540,332,63
182550,342,63
182561,348,63
182570,349,63
182581,365,63
182591,364,63
182601,369,63
182612,379,63
182622,374,63
182633,373,63
182643,348,63
182653,325,63
182663,318,63
182674,297,63
182683,299,63
182693,296,63
182703,291,63
182715,301,63
182725,295,63
182735,297,63
182745,303,63
182755,296,63
182766,301,63
182776,301,63
182786,300,63
182796,308,63
182806,298,63
182817,307,63
182828,307,63
182837,297,63
182848,309,63
182858,301,63
182869,304,63
182879,306,63
182889,298,63
182899,307,63
182909,304,63
182920,301,63
182930,310,63
182940,300,63
182950,308,63
182961,312,63
182970,302,63
182982,312,63
182991,309,63
183002,310,63
183012,316,63
183022,310,63
183033,318,63
183043,316,63
183052,316,63
183064,320,63
183073,314,63
183084,322,63
183094,322,63
183104,317,63
183115,328,63
183125,328,63
183135,326,63
183146,331,63
183156,321,63
183166,330,63
183176,322,63
183187,322,63
183197,325,63
183207,319,63
183217,327,63
183228,325,63
183238,309,63
183248,285,63
183259,335,63
183269,562,63
183279,651,63
183289,590,63
183299,261,63
183310,327,63
183320,326,63
183330,321,63
183341,318,63
183351,324,63
183361,327,63
183372,321,63
183382,337,63
183392,332,63
183402,336,63
183413,344,63
183423,337,63
183433,347,63
183443,348,63
183454,349,63
183464,362,63
183474,360,63
183485,375,63
183495,382,63
183505,381,63
183515,394,63
183526,389,63
183535,394,63
183546,390,63
183556,356,63
183566,342,63
183577,321,63
183587,308,63
183597,309,63
183608,299,63
183618,303,63
183628,303,63
183638,298,63
183649,311,63
183659,301,63
183669,306,63
183679,313,63
183689,302,63
183700,309,63
183711,306,63
183720,303,63
183731,312,63
183741,304,63
183751,309,63
183762,310,63
183772,304,63
183782,312,63
183793,306,63
183803,306,63
183812,312,63
183823,302,63
183833,310,63
183843,309,63
183853,306,63
183864,315,63
183874,306,63
183885,312,63
183895,313,63
183905,308,63
183916,317,63
183925,310,63
183935,313,63
183947,318,63
183957,310,63
183967,317,63
183977,314,63
183987,314,63
183997,318,63
184008,315,63
184018,326,63
184028,326,63
184039,315,63
184049,322,63
184059,316,63
184070,317,63
184080,323,63
184090,312,63
184100,319,63
184111,316,63
184121,288,63
184131,265,63
184141,379,63
184151,625,64
184162,652,64
184172,535,64
184182,251,64
184193,328,64
184203,303,64
184214,302,64
184224,296,64
184234,304,64
184244,304,64
184254,302,64
184265,314,64
184275,308,64
184285,316,64
184296,320,64
184306,314,64
184316,327,64
184326,324,64
184336,328,64
184347,338,64
184357,333,64
184367,349,64
184378,354,64
184387,355,64
184398,369,64
184409,364,64
184419,370,64
184429,364,64
184438,336,64
184449,325,64
184459,304,64
184470,294,64
184479,299,64
184490,288,64
184500,295,64
184511,293,64
184521,288,64
184532,300,64
184542,291,64
184552,297,64
184562,301,64
184572,293,64
184582,303,64
184593,298,64
184603,297,64
184613,306,64
184624,298,64
184634,306,64
184644,306,64
184655,299,64
184665,309,64
184675,302,64
184685,307,64
184696,311,64
184705,303,64
184716,315,64
184726,308,64
184737,309,64
184747,317,64
184757,309,64
184767,316,64
184778,317,64
184788,312,64
184798,321,64
184809,315,64
184818,319,64
184829,323,64
184839,316,64
184849,326,64
184860,318,64
184870,321,64
184881,325,64
184891,322,64
184901,334,64
184911,331,64
184922,325,64
184932,332,64
184941,323,64
184952,326,64
184963,330,64
184973,321,64
184983,330,64
184994,325,64
185003,303,64
185014,271,64
185024,365,64
185034,617,65
185045,652,65
185055,642,65
185065,285,65
185076,331,65
185086,317,65
185096,309,65
185106,303,65
185116,315,65
185126,312,65
185137,314,65
185147,323,65
185157,316,65
185167,324,65
185178,328,65
185188,325,65
185199,337,65
185209,332,65
185220,339,65
185229,348,65
185240,344,65
185250,359,65
185260,360,65
185271,364,65
185281,376,65
185291,371,65
185301,380,65
185312,375,65
185322,349,65
185332,338,65
185343,315,65
185353,309,65
185363,309,65
185373,298,65
185383,307,65
185394,304,65
185403,304,65
185414,313,65
185425,304,65
185435,311,65
185445,313,65
185455,306,65
185466,316,65
185475,313,65
185486,313,65
185497,316,65
185506,309,65
185516,318,65
185527,314,65
185537,312,65
185547,321,65
185558,310,65
185568,319,65
185579,320,65
185589,313,65
185599,323,65
185609,315,65
185620,318,65
185630,323,65
185640,313,65
185650,324,65
185661,321,65
185671,318,65
185681,327,65
185692,318,65
185702,324,65
185711,328,65
185722,317,65
185732,329,65
185743,320,65
185753,326,65
185763,339,65
185773,327,65
185783,333,65
185794,328,65
185805,324,65
185815,331,65
185825,320,65
185835,326,65
185846,327,65
185856,319,65
185866,318,65
185876,263,65
185886,322,65
185896,565,65
185907,652,65
185918,651,65
185927,308,65
185938,315,65
185948,330,65
185959,300,65
185969,310,65
185979,311,65
185990,309,65
186000,321,65
186009,316,65
186020,320,65
186030,328,65
186041,320,65
186051,333,65
186061,332,65
186072,332,65
186082,344,65
186092,342,65
186102,351,65
186112,357,65
186123,357,65
186132,372,65
186142,368,65
186153,373,65
186164,385,65
186174,370,65
186184,359,65
186194,333,65
186204,313,65
186215,312,65
186225,298,65
186235,302,65
186246,303,65
186256,295,65
186266,308,65
186276,302,65
186287,305,65
186297,311,65
186308,303,65
186318,313,65
186327,309,65
186338,304,65
186348,314,65
186359,305,65
186369,308,65
186379,312,65
186389,303,65
186399,315,65
186410,310,65
186420,310,65
186431,316,65
186441,307,65
186451,316,65
186462,314,65
186472,311,65
186482,320,65
186492,313,65
186503,318,65
186513,320,65
186523,315,65
186533,326,65
186543,317,65
186554,318,65
186564,320,65
186574,325,65
186584,335,65
186595,334,65
186605,321,65
186615,331,65
186625,320,65
186636,324,65
186646,327,65
186656,318,65
186666,326,65
186677,320,65
186687,289,65
186697,286,65
186708,440,65
186718,648,65
186728,651,65
186738,393,65
186749,273,65
186759,331,65
186769,305,65
186779,310,65
186790,305,65
186800,315,65
186811,310,65
186821,315,65
186830,324,65
186841,318,65
186851,329,65
186861,330,65
186872,327,65
186882,340,65
186893,338,65
186903,347,65
186913,357,65
186924,355,65
186934,372,65
186944,373,65
186954,377,65
186964,388,65
186975,381,65
186985,386,65
186995,366,65
187005,338,65
187015,330,65
187026,309,65
187036,308,65
187046,308,65
187057,298,65
187067,310,65
187077,303,65
187087,304,65
187098,313,65
187108,303,65
187118,313,65
187128,312,65
187139,306,65
187148,320,65
187160,310,65
187170,313,65
187180,316,65
187190,309,65
187200,318,65
187210,312,65
187221,311,65
187231,319,65
187241,310,65
187252,318,65
187262,315,65
187272,310,65
187283,321,65
187293,312,65
187303,316,65
187313,321,65
187323,310,65
187333,322,65
187345,316,65
187355,314,65
187365,333,65
187375,323,65
187386,330,65
187396,324,65
187405,317,65
187415,329,65
187427,319,65
187436,320,65
187447,325,65
187458,315,65
187468,325,65
187478,285,65
187488,277,65
187498,464,65
187509,650,66
187519,651,66
187529,383,66
187539,265,66
187550,340,66
187560,300,66
187570,305,66
187580,312,66
187591,304,66
187601,317,66
187611,314,66
187621,315,66
187632,325,66
187641,318,66
187652,326,66
187663,328,66
187673,326,66
187682,340,66
187694,336,66
187704,343,66
187714,353,66
187724,349,66
187734,364,66
187744,364,66
187755,365,66
187765,375,66
187775,363,66
187785,353,66
187796,329,66
187806,307,66
187816,306,66
187826,293,66
187837,294,66
187847,299,66
187858,290,66
187868,301,66
187878,297,66
187888,296,66
187899,306,66
187909,297,66
187919,304,66
187930,305,66
187940,301,66
187950,310,66
187960,304,66
187970,305,66
187981,310,66
187991,300,66
188001,310,66
188012,306,66
188021,304,66
188032,313,66
188043,303,66
188053,310,66
188063,312,66
188073,306,66
188083,316,66
188094,309,66
188104,312,66
188114,318,66
188125,308,66
188134,317,66
188145,316,66
188155,311,66
188165,322,66
188176,311,66
188186,323,66
188196,331,66
188207,321,66
188217,330,66
188227,319,66
188237,319,66
188248,325,66
188258,314,66
188268,323,66
188279,318,66
188289,317,66
188299,317,66
188309,263,66
188320,311,66
188330,541,67
188340,652,67
188350,651,67
188361,314,67
188371,306,67
188381,327,67
188392,293,67
188402,306,67
188412,304,67
188422,303,67
188432,315,67
188442,308,67
188453,315,67
188464,318,67
188474,314,67
188484,326,67
188494,321,67
188504,326,67
188514,336,67
188524,331,67
188535,343,67
188545,346,67
188556,347,67
188566,361,67
188576,357,67
188586,366,67
188597,370,67
188607,360,67
188617,353,67
188628,326,67
188637,312,67
188648,309,67
188658,295,67
188668,305,67
188678,300,67
188689,297,67
188699,308,67
188709,298,67
188720,305,67
188730,308,67
188740,303,67
188751,313,67
188761,306,67
188771,308,67
188782,314,67
188792,303,67
188802,313,67
188812,310,67
188822,306,67
188833,316,67
188843,306,67
188853,312,67
188863,315,67
188873,307,67
188884,317,67
188895,310,67
188904,311,67
188915,317,67
188925,308,67
188936,318,67
188946,315,67
188956,313,67
188966,323,67
188976,313,67
188987,320,67
188997,322,67
189007,316,67
189018,324,67
189028,320,67
189038,319,67
189048,332,67
189059,328,67
189069,335,67
189079,330,67
189089,322,67
189099,330,67
189109,321,67
189120,324,67
189131,325,67
189140,318,67
189151,326,67
189161,307,67
189172,263,67
189182,340,67
189192,570,68
189202,652,68
189213,650,68
189223,282,68
189233,330,68
189243,315,68
189253,302,68
189263,307,68
189273,300,68
189284,312,68
189294,306,68
189305,311,68
189315,320,68
189326,312,68
189336,323,68
189346,323,68
189356,321,68
189366,335,68
189376,330,68
189387,339,68
189398,345,68
189408,341,68
189418,359,68
189428,358,68
189438,362,68
189448,374,68
189459,366,68
189469,367,68
189480,344,68
189490,321,68
189500,319,68
189511,301,68
189521,300,68
189531,303,68
189541,295,68
189552,305,68
189562,301,68
189572,299,68
189582,308,68
189593,299,68
189602,306,68
189613,305,68
189623,302,68
189634,313,68
189644,304,68
189654,305,68
189664,310,68
189674,300,68
189685,311,68
189695,305,68
189706,304,68
189716,312,68
189726,305,68
189736,310,68
189747,311,68
189756,307,68
189766,316,68
189777,308,68
189787,312,68
189798,317,68
189808,310,68
189818,322,68
189828,317,68
189838,314,68
189849,325,68
189859,314,68
189870,321,68
189880,323,68
189890,314,68
189901,333,68
189911,327,68
189921,328,68
189931,330,68
189941,320,68
189951,330,68
189962,324,68
189972,322,68
189983,328,68
189992,318,68
190003,323,68
190014,299,68
190024,275,68
190034,425,68
190044,635,69
190055,651,69
190065,451,69
190075,256,69
190084,344,69
190096,311,69
190106,309,69
190115,321,69
190126,312,69
190137,322,69
190147,322,69
190157,319,69
190167,332,69
190178,327,69
190188,332,69
190198,338,69
190208,332,69
190219,346,69
190228,345,69
190239,349,69
190249,364,69
190259,360,69
190270,373,69
190280,375,69
190290,376,69
190301,388,69
190310,380,69
190322,367,69
190332,348,69
190341,319,69
190352,317,69
190363,306,69
190373,300,69
190383,308,69
190393,300,69
190404,306,69
190414,308,69
190423,304,69
190434,314,69
190445,307,69
190454,310,69
190464,316,69
190476,308,69
190486,319,69
190496,313,69
190506,312,69
190516,320,69
190527,309,69
190537,315,69
190547,314,69
190557,308,69
190568,319,69
190578,309,69
190588,313,69
190598,319,69
190608,309,69
190619,319,69
190629,314,69
190640,313,69
190650,322,69
190660,314,69
190670,320,69
190681,322,69
190691,316,69
190701,325,69
190711,318,69
190722,319,69
190731,324,69
190741,315,69
190753,327,69
190763,318,69
190772,327,69
190783,336,69
190793,324,69
190804,327,69
190814,327,69
190824,318,69
190834,327,69
190845,320,69
190855,321,69
190866,326,69
190875,314,69
190886,288,69
190896,275,69
190907,452,69
190917,651,70
190927,652,70
190937,428,70
190948,276,70
190958,330,70
190968,310,70
190978,303,70
190989,307,70
190999,313,70
191009,306,70
191020,318,70
191030,315,70
191040,316,70
191050,327,70
191060,318,70
191070,327,70
191081,330,70
191091,327,70
191102,342,70
191112,338,70
191122,344,70
191131,356,70
191142,351,70
191153,364,70
191163,364,70
191173,363,70
191183,372,70
191194,350,70
191204,337,70
191214,322,70
191225,303,70
191235,306,70
191245,298,70
191255,298,70
191265,303,70
191275,297,70
191286,306,70
191296,303,70
191307,301,70
191317,311,70
191327,304,70
191338,310,70
191348,313,70
191358,305,70
191369,314,70
191379,308,70
191388,309,70
191399,314,70
191409,306,70
191420,314,70
191430,310,70
191440,306,70
191451,315,70
191461,306,70
191470,312,70
191481,313,70
191492,307,70
191502,317,70
191511,311,70
191522,313,70
191532,320,70
191543,311,70
191553,319,70
191563,316,70
191574,315,70
191584,324,70
191594,314,70
191604,321,70
191615,323,70
191625,314,70
191636,324,70
191645,316,70
191656,327,70
191666,335,70
191677,323,70
191687,329,70
191697,324,70
191707,319,70
191718,330,70
191728,318,70
191738,323,70
191748,324,70
191758,317,70
191769,300,70
191779,261,70
191790,398,70
191799,645,70
191809,652,70
191820,571,70
191829,263,70
191840,334,70
191850,314,70
191861,299,70
191871,307,70
191881,309,70
191892,305,70
191902,318,70
191912,312,70
191923,315,70
191932,324,70
191943,317,70
191954,328,70
191964,329,70
191974,327,70
191984,340,70
191995,336,70
192005,346,70
192015,353,70
192026,349,70
192036,364,70
192046,362,70
192056,365,70
192066,375,70
192077,356,70
192087,346,70
192097,325,70
192108,309,70
192118,310,70
192128,299,70
192139,302,70
192149,305,70
192159,297,70
192168,308,70
192180,301,70
192190,302,70
192199,311,70
192210,301,70
192221,310,70
192230,309,70
192241,305,70
192251,314,70
192262,304,70
192272,309,70
192281,312,70
192292,304,70
192303,314,70
192313,307,70
192323,308,70
192333,316,70
192344,306,70
192354,314,70
192364,314,70
192374,310,70
192384,320,70
192395,311,70
192405,316,70
192415,319,70
192426,311,70
192436,322,70
192446,316,70
192457,317,70
192466,324,70
192477,315,70
192487,323,70
192497,322,70
192508,318,70
192518,326,70
192529,321,70
192539,322,70
192549,327,70
192559,329,70
192569,336,70
192579,329,70
192590,324,70
192600,330,70
192611,320,70
192621,328,70
192631,325,70
192642,320,70
192652,330,70
192661,313,70
192672,272,70
192682,311,70
192693,528,70
192702,652,70
192713,652,70
192724,337,70
192734,312,70
192744,324,70
192753,306,70
192764,308,70
192775,304,70
192785,316,70
192796,310,70
192806,316,70
192816,322,70
192826,314,70
192836,327,70
192847,322,70
192857,325,70
192866,336,70
192878,328,70
192888,341,70
192898,344,70
192908,344,70
192918,359,70
192928,356,70
192939,363,70
192949,369,70
192960,364,70
192970,373,70
192980,352,70
192990,332,70
193000,325,70
193011,304,70
193021,305,70
193031,303,70
193041,298,70
193052,308,70
193062,301,70
193073,306,70
193082,309,70
193092,302,70
193104,314,70
193114,308,70
193124,308,70
193134,316,70
193145,306,70
193155,316,70
193165,314,70
193175,307,70
193186,319,70
193196,308,70
193206,311,70
193216,317,70
193226,308,70
193237,318,70
193247,314,70
193257,312,70
193268,321,70
193278,310,70
193288,317,70
193298,317,70
193308,312,70
193319,323,70
193329,315,70
193339,318,70
193349,324,70
193360,315,70
193370,325,70
193380,320,70
193390,317,70
193401,326,70
193411,317,70
193422,323,70
193431,324,70
193442,316,70
193452,326,70
193463,318,70
193473,322,70
193483,338,70
193493,324,70
193503,332,70
193514,326,70
193524,322,70
193535,328,70
193544,316,70
193555,326,70
193565,323,70
193575,317,70
193586,319,70
193596,266,70
193606,309,70
193616,534,69
193626,651,69
193637,650,69
193647,289,69
193657,304,69
193668,329,69
193678,295,69
193689,307,69
193698,307,69
193709,303,69
193719,317,69
193730,311,69
193739,317,69
193750,326,69
193760,318,69
193771,330,69
193781,328,69
193791,330,69
193801,342,69
193812,336,69
193822,348,69
193832,355,69
193842,355,69
193853,367,69
193863,362,69
193873,370,69
193884,378,69
193894,367,69
193904,361,69
193914,335,69
193924,317,69
193935,314,69
193945,299,69
193955,305,69
193966,303,69
193975,298,69
193986,309,69
193997,302,69
194007,305,69
194017,311,69
194027,304,69
194038,314,69
194047,310,69
194057,308,69
194068,317,69
194079,307,69
194089,314,69
194099,314,69
194110,308,69
194120,316,69
194130,309,69
194140,311,69
194150,316,69
194161,308,69
194171,316,69
194181,313,69
194191,312,69
194202,320,69
194212,309,69
194222,317,69
194233,319,69
194242,312,69
194253,323,69
194263,315,69
194274,319,69
194284,323,69
194294,314,69
194304,321,69
194315,321,69
194325,316,69
194335,331,69
194346,326,69
194356,332,69
194366,328,69
194376,319,69
194387,329,69
194397,319,69
194407,322,69
194417,327,69
194427,316,69
194438,326,69
194448,299,69
194458,265,69
194469,387,69
194479,614,69
194489,652,69
194500,582,69
194509,245,69
194520,341,69
194530,308,69
194541,301,69
194551,309,69
194561,301,69
194571,314,69
194581,313,69
194592,312,69
194602,324,69
194613,316,69
194623,325,69
194633,328,69
194643,324,69
194654,338,69
194664,334,69
194674,341,69
194684,349,69
194695,346,69
194705,362,69
194715,360,69
194725,362,69
194735,374,69
194746,366,69
194756,364,69
194766,345,69
194776,320,69
194787,317,69
194797,301,69
194807,301,69
194817,305,69
194827,295,69
194838,306,69
194848,303,69
194859,301,69
194869,311,69
194879,302,69
194889,309,69
194900,310,69
194909,303,69
194920,314,69
194931,307,69
194940,309,69
194951,314,69
194961,305,69
194972,316,69
194982,311,69
194992,308,69
195003,316,69
195013,306,69
195023,312,69
195033,312,69
195043,307,69
195054,317,69
195064,310,69
195074,313,69
195084,320,69
195095,310,69
195105,321,69
195115,318,69
195126,315,69
195136,324,69
195145,315,69
195157,322,69
195166,324,69
195177,315,69
195187,326,69
195197,316,69
195208,329,69
195218,336,69
195228,324,69
195239,330,69
195249,323,69
195259,322,69
195269,329,69
195279,320,69
195290,324,69
195300,325,69
195310,319,69
195321,301,69
195330,266,69
195341,405,69
195352,645,69
195362,652,69
195372,553,69
195382,259,69
195392,336,69
195403,314,69
195413,298,69
195423,309,69
195433,311,69
195443,307,69
195454,320,69
195464,314,69
195475,318,69
195484,325,69
195495,318,69
195506,330,69
195515,329,69
195525,328,69
195536,341,69
195546,336,69
195557,346,69
195567,353,69
195577,352,69
195587,366,69
195597,361,69
195608,365,69
195618,373,69
195628,354,69
195639,344,69
195649,322,69
195659,306,69
195670,310,69
195680,296,69
195690,301,69
195700,302,69
195710,296,69
195721,308,69
195730,302,69
195742,305,69
195752,311,69
195762,302,69
195773,312,69
195783,309,69
195792,307,69
195803,316,69
195814,307,69
195824,311,69
195834,312,69
195844,306,69
195855,315,69
195865,308,69
195875,309,69
195885,316,69
195896,306,69
195906,316,69
195916,313,69
195926,310,69
195936,320,69
195946,311,69
195957,316,69
195967,317,69
195978,311,69
195988,322,69
195998,315,69
196009,317,69
196019,323,69
196029,316,69
196039,326,69
196050,320,69
196060,318,69
196070,326,69
196080,316,69
196090,333,69
196101,334,69
196111,325,69
196121,331,69
196131,323,69
196142,323,69
196152,329,69
196162,318,69
196173,327,69
196183,323,69
196193,317,69
196204,286,69
196214,282,69
196224,485,69
196234,651,68
196244,652,68
196255,405,68
196264,281,68
196276,335,68
196286,308,68
196296,301,68
196306,310,68
196316,310,68
196326,309,68
196336,323,68
196346,315,68
196357,322,68
196368,325,68
196378,321,68
196388,334,68
196399,328,68
196409,332,68
196419,344,68
196430,338,68
196440,351,68
196449,354,68
196460,356,68
196471,367,68
196480,361,68
196491,370,68
196501,372,68
196512,351,68
196522,342,68
196532,317,68
196542,306,68
196552,307,68
196562,294,68
196572,301,68
196583,301,68
196593,298,68
196603,308,68
196613,300,68
196625,306,68
196635,307,68
196645,300,68
196655,310,68
196665,304,68
196676,305,68
196686,310,68
196696,302,68
196706,312,68
196717,307,68
196727,303,68
196738,314,68
196747,303,68
196757,308,68
196768,313,68
196779,304,68
196789,312,68
196798,309,68
196809,308,68
196820,316,68
196830,307,68
196840,317,68
196850,313,68
196861,308,68
196871,319,68
196881,308,68
196891,315,68
196901,317,68
196912,305,68
196922,326,68
196933,322,68
196943,323,68
196953,323,68
196962,312,68
196973,324,68
196984,321,68
196994,313,68
197004,322,68
197014,315,68
197025,316,68
197034,288,68
197045,280,68
197055,468,68
197066,649,68
197076,650,68
197086,343,68
197096,270,68
197107,335,68
197117,308,68
197127,304,68
197138,316,68
197148,308,68
197158,315,68
197168,322,68
197179,316,68
197189,327,68
197199,324,68
197209,328,68
197220,335,68
197230,330,68
197240,345,68
197250,345,68
197261,343,68
197271,364,68
197282,357,68
197291,368,68
197301,372,68
197312,372,68
197323,383,68
197332,372,68
197343,355,68
197353,340,68
197364,312,68
197373,313,68
197384,303,68
197395,295,68
197405,304,68
197415,297,68
197425,303,68
197435,308,68
197446,300,68
197455,312,68
197466,307,68
197477,308,68
197486,315,68
197497,308,68
197507,316,68
197517,313,68
197528,309,68
197538,320,68
197548,312,68
197559,316,68
197568,318,68
197578,310,68
197589,319,68
197599,313,68
197610,313,68
197619,320,68
197630,310,68
197641,320,68
197650,318,68
197661,312,68
197671,321,68
197682,314,68
197692,316,68
197702,318,68
197713,322,68
197723,333,68
197733,326,68
197744,323,68
197753,327,68
197763,316,68
197774,325,68
197784,321,68
197795,315,68
197805,323,68
197815,313,68
197825,285,68
197835,285,68
197846,452,68
197856,650,69
197866,651,69
197877,366,69
197886,276,69
197897,328,69
197908,306,69
197918,307,69
197928,306,69
197939,315,69
197949,308,69
197959,314,69
197969,321,69
197979,316,69
197990,327,69
197999,325,69
198010,326,69
198021,336,69
198031,331,69
198041,342,69
198051,344,69
198061,345,69
198072,360,69
198082,356,69
198093,364,69
198103,371,69
198113,365,69
198123,372,69
198133,348,69
198144,328,69
198154,318,69
198164,300,69
198175,303,69
198185,300,69
198195,295,69
198206,305,69
198216,297,69
198226,302,69
198236,307,69
198246,300,69
198257,312,69
198267,307,69
198277,307,69
198288,315,69
198298,306,69
198308,314,69
198318,312,69
