Timestamp,ECGValue,BPM
458073,301,73
458084,318,73
458095,301,73
458106,318,73
458114,319,73
458126,310,73
458137,331,73
458145,320,73
458156,328,73
458165,339,73
458176,326,73
458186,351,73
458198,345,73
458208,347,73
458219,365,73
458227,349,73
458239,369,73
458248,366,73
458259,348,73
458269,349,73
458279,317,73
458289,308,73
458301,313,73
458311,291,73
458321,311,73
458330,297,73
458341,296,73
458348,312,73
458361,300,73
458373,307,73
458382,309,73
458393,300,73
458403,317,73
458412,301,73
458424,310,73
458434,317,73
458443,297,73
458453,317,73
458463,307,73
458476,304,73
458482,318,73
458494,301,73
458502,314,73
458517,313,73
458525,303,73
458535,323,73
458545,308,73
458557,315,73
458568,319,73
458577,304,73
458588,325,73
458598,312,73
458608,310,73
458618,325,73
458629,311,73
458638,324,73
458649,324,73
458659,316,73
458669,325,73
458679,317,73
458689,322,73
458701,329,73
458710,314,73
458721,332,73
458731,322,73
458742,321,73
458752,332,73
458762,320,73
458772,338,73
458782,334,73
458793,321,73
458803,335,73
458813,319,73
458824,322,73
458835,328,73
458844,313,73
458855,325,73
458865,319,73
458875,291,73
458886,285,73
458895,391,73
458906,611,72
458917,652,72
458927,483,72
458937,256,72
458947,322,72
458957,301,72
458967,308,72
458978,296,72
458988,316,72
458998,306,72
459007,306,72
459019,324,72
459029,307,72
459039,321,72
459049,324,72
459059,316,72
459070,339,72
459078,328,72
459090,339,72
459101,350,72
459111,341,72
459122,359,72
459132,359,72
459141,358,72
459151,374,72
459163,357,72
459172,361,72
459183,342,72
459193,308,72
459203,318,72
459213,295,72
459224,297,72
459234,305,72
459244,292,72
459254,308,72
459266,302,72
459276,299,72
459286,314,72
459296,298,72
459305,311,72
459317,312,72
459327,301,72
459336,325,72
459346,303,72
459358,311,72
459368,319,72
459378,301,72
459389,321,72
459399,311,72
459409,307,72
459419,324,72
459430,306,72
459440,316,72
459450,319,72
459460,309,72
459470,326,72
459480,313,72
459490,313,72
459502,325,72
459512,310,72
459522,324,72
459532,316,72
459542,314,72
459553,334,72
459564,311,72
459572,328,72
459584,324,72
459594,316,72
459604,334,72
459614,316,72
459624,321,72
459635,333,72
459645,310,72
459656,344,72
459665,329,72
459674,327,72
459686,339,72
459696,317,72
459706,330,72
459717,327,72
459728,314,72
459738,333,72
459748,318,72
459757,318,72
459769,295,72
459779,275,72
459788,469,72
459800,649,71
459810,652,71
459820,407,71
459830,270,71
459840,334,71
459851,308,71
459860,297,71
459869,320,71
459878,304,71
459891,314,71
459902,326,71
459912,309,71
459922,329,71
459932,323,71
459943,324,71
459954,340,71
459964,324,71
459974,343,71
459984,347,71
459993,337,71
460003,367,71
460015,353,71
460025,361,71
460036,375,71
460045,359,71
460056,374,71
460066,352,71
460074,331,71
460087,329,71
460097,298,71
460107,308,71
460118,308,71
460126,295,71
460137,312,71
460149,300,71
460157,303,71
460169,312,71
460179,298,71
460189,316,71
460199,307,71
460210,305,71
460220,320,71
460230,299,71
460240,315,71
460251,318,71
460261,300,71
460270,323,71
460280,307,71
460291,309,71
460303,320,71
460312,301,71
460322,321,71
460333,311,71
460343,308,71
460353,325,71
460363,304,71
460374,323,71
460385,317,71
460393,309,71
460405,330,71
460415,313,71
460424,318,71
460436,328,71
460445,308,71
460456,327,71
460465,325,71
460476,311,71
460487,335,71
460498,316,71
460507,328,71
460518,330,71
460528,312,71
460537,335,71
460549,318,71
460559,324,71
460569,343,71
460580,323,71
460588,335,71
460600,327,71
460609,318,71
460620,338,71
460630,311,71
460640,328,71
460651,328,71
460662,311,71
460671,313,71
460682,267,71
460692,383,71
460703,612,70
460712,652,70
460722,588,70
460734,263,70
460744,321,70
460753,320,70
460763,294,70
460774,307,70
460785,316,70
460794,300,70
460805,323,70
460815,310,70
460826,317,70
460836,328,70
460847,315,70
460856,334,70
460866,335,70
460876,322,70
460886,350,70
460897,335,70
460908,354,70
460918,355,70
460929,349,70
460939,373,70
460949,364,70
460959,362,70
460970,369,70
460978,331,70
460989,330,70
461001,312,70
461009,298,70
461020,315,70
461030,293,70
461040,309,70
461052,306,70
461062,297,70
461072,312,70
461083,303,70
461093,306,70
461103,318,70
461113,300,70
461122,320,70
461134,308,70
461144,303,70
461154,322,70
461164,300,70
461174,314,70
461185,315,70
461194,302,70
461206,322,70
461216,307,70
461226,310,70
461236,324,70
461247,304,70
461257,320,70
461267,316,70
461277,308,70
461287,327,70
461297,308,70
461307,319,70
461319,321,70
461327,309,70
461337,327,70
461349,314,70
461359,315,70
461370,331,70
461380,310,70
461390,328,70
461401,320,70
461410,315,70
461422,332,70
461431,313,70
461441,324,70
461452,327,70
461462,312,70
461473,332,70
461483,331,70
461492,327,70
461504,340,70
461514,317,70
461523,330,70
461535,324,70
461543,314,70
461553,333,70
461565,314,70
461575,320,70
461585,322,70
461594,272,70
461606,304,70
461616,482,70
461627,650,68
461637,651,68
461645,344,68
461656,293,68
461668,325,68
461678,292,68
461687,317,68
461699,297,68
461707,312,68
461719,317,68
461729,307,68
461739,326,68
461749,317,68
461760,317,68
461770,335,68
461780,319,68
461791,338,68
461801,339,68
461811,337,68
461820,359,68
461828,347,68
461841,361,68
461853,369,68
461863,361,68
461872,382,68
461884,368,68
461893,350,68
461903,342,68
461913,308,68
461925,312,68
461935,303,68
461945,292,68
461955,308,68
461965,294,68
461976,300,68
461985,308,68
461995,296,68
462006,313,68
462016,306,68
462026,304,68
462036,320,68
462047,301,68
462056,315,68
462068,313,68
462078,306,68
462089,323,68
462099,304,68
462109,316,68
462119,318,68
462129,299,68
462139,321,68
462149,307,68
462160,307,68
462170,321,68
462180,304,68
462191,320,68
462202,312,68
462212,305,68
462221,324,68
462232,305,68
462241,317,68
462253,323,68
462263,307,68
462273,327,68
462283,319,68
462293,315,68
462304,330,68
462314,313,68
462325,326,68
462335,325,68
462345,311,68
462356,337,68
462366,327,68
462374,332,68
462386,334,68
462397,318,68
462406,333,68
462416,322,68
462427,322,68
462437,333,68
462448,314,68
462458,328,68
462468,306,68
462479,274,68
462489,417,68
462499,603,68
462509,650,68
462520,465,68
462530,240,68
462539,337,68
462551,307,68
462559,303,68
462570,322,68
462581,303,68
462591,320,68
462602,324,68
462612,312,68
462623,335,68
462632,319,68
462643,332,68
462653,342,68
462661,324,68
462673,350,68
462683,343,68
462694,349,68
462703,370,68
462713,354,68
462724,374,68
462735,379,68
462746,370,68
462755,384,68
462766,356,68
462776,340,68
462786,325,68
462797,300,68
462806,308,68
462816,296,68
462826,294,68
462837,306,68
462847,292,68
462858,301,68
462869,304,68
462879,294,68
462889,315,68
462898,301,68
462910,306,68
462920,314,68
462930,297,68
462941,319,68
462951,309,68
462960,303,68
462970,319,68
462980,301,68
462991,315,68
463002,314,68
463011,300,68
463022,320,68
463033,307,68
463043,308,68
463053,319,68
463064,303,68
463074,323,68
463084,312,68
463095,308,68
463104,327,68
463114,305,68
463124,321,68
463136,320,68
463145,314,68
463156,328,68
463166,313,68
463175,319,68
463187,329,68
463197,313,68
463208,331,68
463218,322,68
463228,314,68
463237,335,68
463247,315,68
463259,333,68
463269,339,68
463278,322,68
463289,341,68
463300,319,68
463309,326,68
463320,332,68
463330,315,68
463341,330,68
463351,319,68
463362,317,68
463371,315,68
463381,264,68
463393,381,68
463403,604,67
463413,652,67
463422,606,67
463432,254,67
463443,328,67
463454,319,67
463465,290,67
463474,317,67
463485,305,67
463495,309,67
463503,327,67
463515,304,67
463524,327,67
463536,325,67
463545,315,67
463555,339,67
463567,326,67
463576,335,67
463586,348,67
463597,336,67
463608,360,67
463618,357,67
463628,357,67
463639,377,67
463649,359,67
463659,377,67
463669,368,67
463679,333,67
463689,340,67
463700,308,67
463709,308,67
463720,312,67
463730,294,67
463742,314,67
463752,303,67
463762,300,67
463772,316,67
463782,300,67
463793,313,67
463803,314,67
463812,305,67
463822,324,67
463834,307,67
463842,314,67
463854,324,67
463864,304,67
463875,324,67
463885,314,67
463896,309,67
463906,323,67
463915,304,67
463925,320,67
463936,315,67
463947,307,67
463956,328,67
463967,307,67
463976,315,67
463986,324,67
463997,307,67
464008,324,67
464019,317,67
464028,312,67
464039,328,67
464049,309,67
464057,324,67
464069,323,67
464081,312,67
464089,332,67
464101,316,67
464111,322,67
464120,330,67
464132,314,67
464141,330,67
464152,323,67
464162,318,67
464172,334,67
464183,316,67
464192,336,67
464203,338,67
464213,323,67
464223,343,67
464234,324,67
464243,324,67
464254,335,67
464264,313,67
464274,333,67
464285,320,67
464295,316,67
464304,330,67
464313,300,67
464326,274,67
464337,333,67
464346,539,66
464356,652,66
464368,651,66
464377,298,66
464388,320,66
464398,308,66
464406,309,66
464419,305,66
464427,301,66
464439,320,66
464449,302,66
464458,318,66
464469,323,66
464479,308,66
464491,333,66
464501,322,66
464511,324,66
464521,341,66
464532,325,66
464542,348,66
464552,345,66
464561,347,66
464573,369,66
464583,354,66
464592,371,66
464603,379,66
464613,352,66
464624,361,66
464633,328,66
464645,316,66
464655,317,66
464665,295,66
464675,309,66
464685,302,66
464695,296,66
464706,315,66
464716,296,66
464725,307,66
464736,312,66
464747,299,66
464758,320,66
464767,304,66
464778,309,66
464788,319,66
464799,300,66
464809,318,66
464819,315,66
464829,303,66
464839,323,66
464848,304,66
464859,312,66
464869,315,66
464881,301,66
464891,321,66
464901,304,66
464912,312,66
464922,323,66
464931,305,66
464943,319,66
464953,316,66
464962,311,66
464973,330,66
464983,310,66
464993,321,66
465003,326,66
465014,308,66
465025,329,66
465033,315,66
465043,316,66
465054,330,66
465064,311,66
465075,326,66
465085,324,66
465096,317,66
465107,331,66
465116,318,66
465127,335,66
465137,337,66
465147,320,66
465157,337,66
465168,322,66
465178,321,66
465188,331,66
465198,312,66
465209,324,66
465218,319,66
465230,312,66
465240,328,66
465250,281,66
465260,283,66
465271,439,66
465281,623,66
465292,651,66
465300,419,66
465311,255,66
465323,336,66
465331,291,66
465342,308,66
465351,307,66
465362,300,66
465373,320,66
465381,306,66
465394,317,66
465405,325,66
465414,313,66
465425,333,66
465435,323,66
465445,330,66
465456,343,66
465464,331,66
465476,355,66
465485,356,66
465495,354,66
465507,376,66
465516,363,66
465528,378,66
465538,379,66
465547,352,66
465559,347,66
465569,315,66
465577,308,66
465588,308,66
465599,289,66
465609,305,66
465619,300,66
465629,296,66
465641,311,66
465650,293,66
465659,306,66
465671,314,66
465681,299,66
465692,318,66
465702,307,66
465713,307,66
465723,322,66
465733,302,66
465743,320,66
465753,313,66
465762,305,66
465772,321,66
465784,305,66
465794,314,66
465803,321,66
465814,302,66
465825,323,66
465835,312,66
465844,312,66
465856,325,66
465867,306,66
465876,322,66
465887,318,66
465896,308,66
465907,328,66
465917,311,66
465928,320,66
465938,326,66
465947,310,66
465957,331,66
465968,318,66
465977,319,66
465990,332,66
466000,313,66
466010,329,66
466019,324,66
466029,321,66
466039,343,66
466050,326,66
466060,331,66
466072,336,66
466082,318,66
466092,334,66
466102,320,66
466113,317,66
466123,330,66
466133,309,66
466143,328,66
466154,316,66
466164,284,66
466175,284,66
466183,403,66
466195,629,65
466204,652,65
466214,497,65
466225,267,65
466235,327,65
466246,300,65
466256,312,65
466266,295,65
466277,314,65
466287,314,65
466298,304,65
466308,329,65
466317,310,65
466328,323,65
466338,331,65
466349,317,65
466359,341,65
466369,331,65
466379,334,65
466389,355,65
466400,338,65
466410,363,65
466420,363,65
466431,359,65
466441,377,65
466450,362,65
466461,360,65
466471,348,65
466481,313,65
466493,321,65
466503,301,65
466513,297,65
466523,311,65
466534,293,65
466543,306,65
466553,303,65
466563,297,65
466575,319,65
466584,299,65
466594,309,65
466604,316,65
466614,302,65
466626,320,65
466636,306,65
466645,309,65
466657,322,65
466667,303,65
466677,316,65
466686,314,65
466697,301,65
466708,325,65
466718,302,65
466728,316,65
466738,318,65
466749,303,65
466760,325,65
466769,311,65
466779,310,65
466789,323,65
466800,307,65
466810,321,65
466820,318,65
466831,308,65
466842,330,65
466851,309,65
466862,320,65
466872,326,65
466883,312,65
466893,326,65
466902,318,65
466912,317,65
466924,333,65
466933,312,65
466944,334,65
466954,336,65
466965,325,65
466975,341,65
466985,323,65
466994,331,65
467005,332,65
467015,311,65
467027,329,65
467037,317,65
467045,315,65
467057,329,65
467066,311,65
467077,308,65
467087,271,65
467098,360,65
467108,601,65
467119,652,65
467129,620,65
467139,271,65
467147,313,65
467160,321,65
467170,295,65
467180,299,65
467190,317,65
467199,297,65
467211,319,65
467221,317,65
467231,310,65
467242,332,65
467251,315,65
467261,326,65
467273,336,65
467281,323,65
467293,347,65
467303,343,65
467312,342,65
467322,366,65
467333,351,65
467343,371,65
467353,371,65
467365,362,65
467375,376,65
467382,341,65
467394,330,65
467406,322,65
467415,297,65
467427,312,65
467437,300,65
467446,298,65
467456,314,65
467468,292,65
467478,312,65
467488,310,65
467498,298,65
467509,320,65
467518,302,65
467528,312,65
467538,319,65
467550,301,65
467560,321,65
467570,306,65
467580,308,65
467591,322,65
467600,301,65
467611,319,65
467619,314,65
467632,305,65
467642,324,65
467652,306,65
467662,313,65
467673,322,65
467683,304,65
467694,323,65
467704,315,65
467713,309,65
467723,328,65
467734,307,65
467745,322,65
467755,322,65
467765,309,65
467776,329,65
467786,311,65
467795,319,65
467805,327,65
467816,310,65
467827,330,65
467837,321,65
467847,317,65
467858,334,65
467868,319,65
467878,336,65
467888,332,65
467899,320,65
467909,339,65
467919,319,65
467928,323,65
467940,326,65
467949,312,65
467961,328,65
467970,318,65
467980,312,65
467990,328,65
468001,273,65
468011,295,65
468021,476,65
468031,649,65
468043,652,65
468052,374,65
468063,277,65
468074,336,65
468084,289,65
468094,312,65
468104,308,65
468113,303,65
468123,321,65
468134,304,65
468145,322,65
468155,329,65
468165,310,65
468175,337,65
468186,323,65
468196,335,65
468204,345,65
468217,336,65
468226,361,65
468238,357,65
468247,355,65
468255,378,65
468269,368,65
468279,377,65
468288,377,65
468299,352,65
468309,350,65
468319,316,65
468330,309,65
468340,311,65
468349,295,65
468361,308,65
468370,301,65
468380,297,65
468390,310,65
468402,299,65
468412,308,65
468421,310,65
468432,300,65
468442,318,65
468452,305,65
468463,308,65
468474,319,65
468483,303,65
468495,318,65
468505,314,65
468513,306,65
468525,319,65
468535,307,65
468546,313,65
468555,315,65
468565,306,65
468575,322,65
468585,307,65
468597,311,65
468608,324,65
468617,305,65
468627,323,65
468638,314,65
468648,311,65
468658,326,65
468667,312,65
468680,320,65
468689,325,65
468699,311,65
468708,331,65
468720,319,65
468730,319,65
468740,333,65
468750,319,65
468761,341,65
468772,328,65
468782,321,65
468792,340,65
468803,314,65
468812,324,65
468822,327,65
468832,311,65
468842,330,65
468853,316,65
468863,316,65
468874,318,65
468885,266,65
468895,333,65
468905,536,65
468915,650,65
468925,635,65
468936,259,65
468946,308,65
468956,322,65
468965,291,65
468976,319,65
468986,306,65
468997,307,65
469008,324,65
469017,307,65
469028,325,65
469039,323,65
469048,318,65
469058,337,65
469069,321,65
469079,340,65
469088,343,65
469099,336,65
469109,364,65
469119,352,65
469129,362,65
469140,379,65
469151,363,65
469162,382,65
469170,368,65
469180,348,65
469193,340,65
469203,308,65
469213,307,65
469223,305,65
469232,289,65
469244,312,65
469253,294,65
469263,300,65
469273,310,65
469284,297,65
469295,312,65
469306,311,65
469316,301,65
469326,323,65
469336,299,65
469347,315,65
469357,319,65
469365,302,65
469377,325,65
469388,306,65
469397,309,65
469407,323,65
469418,301,65
469429,319,65
469438,312,65
469449,307,65
469460,326,65
469470,305,65
469480,321,65
469490,318,65
469499,308,65
469509,325,65
469520,314,65
469530,314,65
469540,327,65
469550,308,65
469562,327,65
469571,317,65
469582,314,65
469592,332,65
469603,312,65
469613,325,65
469622,328,65
469634,312,65
469643,338,65
469651,328,65
469663,332,65
469674,337,65
469685,320,65
469696,333,65
469706,325,65
469716,316,65
469725,336,65
469737,315,65
469746,321,65
469756,330,65
469767,309,65
469777,292,65
469787,290,65
469797,480,65
469808,651,65
469819,652,65
469829,401,65
469839,286,65
469849,320,65
469859,316,65
469870,296,65
469879,308,65
469889,317,65
469901,300,65
469910,323,65
469921,313,65
469932,315,65
469941,332,65
469953,312,65
469961,334,65
469971,334,65
469983,325,65
469993,351,65
470003,338,65
470013,353,65
470024,362,65
470034,350,65
470044,374,65
470054,364,65
470064,364,65
470074,366,65
470086,327,65
470096,329,65
470105,311,65
470116,298,65
470126,312,65
470137,297,65
470147,302,65
470158,310,65
470168,294,65
470177,316,65
470187,305,65
470198,305,65
470207,317,65
470218,299,65
470229,316,65
470240,312,65
470250,304,65
470259,321,65
470271,303,65
470279,313,65
470290,318,65
470300,301,65
470311,323,65
470321,306,65
470331,309,65
470341,323,65
470353,304,65
470363,320,65
470373,318,65
470383,308,65
470392,329,65
470404,309,65
470414,320,65
470424,325,65
470435,308,65
470444,330,65
470454,316,65
470464,317,65
470476,332,65
470486,313,65
470496,327,65
470506,324,65
470517,315,65
470526,340,65
470537,326,65
470547,330,65
470556,333,65
470568,316,65
470579,333,65
470588,316,65
470598,316,65
470608,329,65
470620,309,65
470629,323,65
470640,319,65
470650,292,65
470660,277,65
470670,352,65
470679,586,66
470690,652,66
470702,612,66
470712,270,66
470722,317,66
470732,305,66
470743,308,66
470752,292,66
470763,310,66
470773,310,66
470783,304,66
470793,321,66
470803,309,66
470813,320,66
470824,329,66
470835,316,66
470844,337,66
470856,328,66
470865,333,66
470876,352,66
470886,338,66
470896,360,66
470907,363,66
470917,356,66
470927,377,66
470937,364,66
470947,362,66
470957,356,66
470967,321,66
470978,325,66
470989,302,66
470998,299,66
471009,310,66
471019,294,66
471030,304,66
471040,306,66
471050,296,66
471059,316,66
471071,301,66
471080,306,66
471090,315,66
471100,299,66
471111,318,66
471122,306,66
471132,306,66
471142,319,66
471152,303,66
471162,317,66
471173,314,66
471184,302,66
471194,323,66
471204,305,66
471213,312,66
471223,316,66
471235,303,66
471244,323,66
471255,311,66
471266,309,66
471276,323,66
471286,306,66
471296,321,66
471307,316,66
471317,310,66
471326,326,66
471338,314,66
471348,317,66
471357,326,66
471369,309,66
471379,329,66
471389,321,66
471399,327,66
471409,337,66
471419,318,66
471429,330,66
471440,326,66
471450,316,66
471461,329,66
471472,315,66
471480,319,66
471491,325,66
471501,310,66
471511,305,66
471523,272,66
471532,396,66
471542,615,66
471552,651,66
471564,502,66
471574,252,66
471584,324,66
471594,314,66
471605,297,66
471615,304,66
471623,314,66
471636,301,66
471646,323,66
471656,316,66
471665,318,66
471676,333,66
471688,316,66
471697,331,66
471707,337,66
471716,330,66
471727,353,66
471739,346,66
471749,353,66
471759,369,66
471769,356,66
471778,376,66
471790,372,66
471800,367,66
471810,374,66
471820,336,66
471830,325,66
471840,314,66
471848,296,66
471860,307,66
471872,292,66
471881,297,66
471892,308,66
471903,293,66
471912,312,66
471923,301,66
471933,302,66
471943,320,66
471953,300,66
471963,314,66
471973,316,66
471983,303,66
471994,323,66
472005,306,66
472016,308,66
472026,318,66
472036,299,66
472046,318,66
472057,308,66
472066,305,66
472076,321,66
472088,303,66
472097,315,66
472107,316,66
472118,307,66
472128,323,66
472139,312,66
472148,315,66
472159,325,66
472169,307,66
472178,326,66
472190,318,66
472201,315,66
472210,330,66
472220,321,66
472230,334,66
472240,334,66
472251,317,66
472262,334,66
472271,319,66
472282,320,66
472293,329,66
472303,312,66
472313,334,66
472323,314,66
472334,281,66
472344,313,66
472355,476,66
472363,649,66
472374,650,66
472384,316,66
472395,291,66
472406,318,66
472415,300,66
472424,317,66
472437,294,66
472445,318,66
472457,314,66
472466,312,66
472476,332,66
472488,315,66
472497,328,66
472508,334,66
472517,325,66
472529,346,66
472539,333,66
472548,347,66
472558,360,66
472568,351,66
472579,374,66
472590,368,66
472601,368,66
472610,386,66
472622,363,66
472631,359,66
472641,339,66
472651,307,66
472662,319,66
472672,294,66
472682,297,66
472692,307,66
472700,292,66
472714,308,66
472724,303,66
472734,300,66
472743,317,66
472755,300,66
472763,313,66
472774,315,66
472784,303,66
472794,322,66
472806,305,66
472816,310,66
472825,320,66
472837,301,66
472847,319,66
472857,309,66
472866,304,66
472877,322,66
472888,300,66
472898,316,66
472909,316,66
472918,304,66
472928,323,66
472939,309,66
472949,313,66
472960,322,66
472970,307,66
472979,325,66
472990,317,66
473001,315,66
473011,328,66
473022,308,66
473032,321,66
473041,324,66
473051,307,66
473061,341,66
473072,322,66
473083,328,66
473092,331,66
473104,313,66
473112,331,66
473124,319,66
473134,315,66
473144,329,66
473153,310,66
473165,323,66
473174,291,66
473186,270,66
473195,455,66
473206,646,67
473216,652,67
473226,467,67
473237,258,67
473246,337,67
473257,299,67
473267,296,67
473277,314,67
473288,298,67
473299,314,67
473308,315,67
473319,305,67
473328,328,67
473340,317,67
473349,315,67
473360,335,67
473370,318,67
473378,342,67
473391,336,67
473401,338,67
473410,360,67
473422,348,67
473431,364,67
473442,366,67
473452,358,67
473462,380,67
473473,351,67
473482,340,67
473494,333,67
473504,301,67
473514,313,67
473525,302,67
473535,296,67
473545,312,67
473556,296,67
473564,308,67
473576,310,67
473586,298,67
473595,320,67
473607,306,67
473616,309,67
473626,320,67
473637,300,67
473644,321,67
473657,310,67
473666,307,67
473678,325,67
473689,306,67
473699,315,67
473709,318,67
473718,304,67
473730,325,67
473740,308,67
473750,313,67
473760,322,67
473770,305,67
473781,323,67
473791,316,67
473802,312,67
473812,327,67
473822,310,67
473832,322,67
473841,324,67
473852,309,67
473862,328,67
473873,316,67
473883,317,67
473893,329,67
473904,310,67
473915,329,67
473924,318,67
473935,326,67
473945,341,67
473955,321,67
473966,328,67
473976,328,67
473985,315,67
473997,331,67
474006,316,67
474017,319,67
474027,330,67
474037,305,67
474048,284,67
474057,296,67
474069,485,67
474079,651,68
474089,652,68
474100,371,68
474110,292,68
474119,314,68
474129,308,68
474138,297,68
474149,301,68
474161,315,68
474171,300,68
474181,321,68
474190,313,68
474202,308,68
474212,331,68
474223,314,68
474233,328,68
474243,336,68
474254,324,68
474263,347,68
474273,341,68
474284,349,68
474294,365,68
474304,351,68
474314,375,68
474325,371,68
474335,361,68
474345,364,68
474356,325,68
474366,321,68
474376,313,68
474387,290,68
474397,307,68
474406,295,68
474417,297,68
474427,309,68
474438,294,68
474449,310,68
474458,307,68
474468,299,68
474479,313,68
474489,300,68
474499,310,68
474508,316,68
474520,301,68
474529,318,68
474541,306,68
474550,306,68
474561,322,68
474571,300,68
474582,315,68
474591,312,68
474602,307,68
474613,321,68
474622,303,68
474633,313,68
474644,319,68
474653,305,68
474664,322,68
474673,312,68
474683,311,68
474695,323,68
474704,306,68
474715,325,68
474725,320,68
474735,312,68
474745,324,68
474755,311,68
474766,321,68
474777,325,68
474786,310,68
474798,328,68
474807,319,68
474818,316,68
474828,343,68
474838,319,68
474849,333,68
474858,322,68
474869,316,68
474879,332,68
474889,316,68
474900,322,68
474910,325,68
474918,309,68
474929,322,68
474941,273,68
474952,317,68
474962,538,68
474971,650,68
474982,642,68
474992,280,68
475002,295,68
475012,328,68
475023,294,68
475033,306,68
475044,316,68
475054,301,68
475064,322,68
475074,316,68
475084,317,68
475093,329,68
475104,318,68
475115,333,68
475124,333,68
475135,330,68
475146,352,68
475156,339,68
475167,352,68
475177,366,68
475188,356,68
475197,378,68
475207,372,68
475217,376,68
475229,381,68
475237,347,68
475249,338,68
475259,324,68
475269,298,68
475280,312,68
475290,298,68
475301,303,68
475309,308,68
475321,295,68
475331,312,68
475342,305,68
475352,305,68
475362,318,68
475371,306,68
475383,315,68
475393,317,68
475402,306,68
475413,324,68
475424,306,68
475433,316,68
475443,322,68
475454,305,68
475465,322,68
475474,313,68
475485,314,68
475495,319,68
475506,306,68
475516,322,68
475524,315,68
475535,306,68
475547,327,68
475556,309,68
475568,319,68
475578,328,68
475587,309,68
475599,328,68
475608,319,68
475618,319,68
475628,331,68
475639,314,68
475649,328,68
475659,325,68
475669,315,68
475679,332,68
475689,326,68
475700,335,68
475710,337,68
475720,321,68
475732,335,68
475740,323,68
475752,321,68
475762,333,68
475772,316,68
475783,325,68
475792,327,68
475802,288,68
475813,291,68
475824,412,68
475833,628,68
475843,652,68
475854,469,68
475866,267,68
475872,329,68
475884,304,68
475896,317,68
475906,297,68
475917,317,68
475926,314,68
475937,307,68
475947,329,68
475956,314,68
475968,323,68
475977,334,68
475987,322,68
475998,341,68
476008,333,68
476018,337,68
476028,356,68
476039,345,68
476051,366,68
476059,365,68
476069,361,68
476079,381,68
476091,365,68
476101,360,68
476111,349,68
476121,313,68
476132,320,68
476141,300,68
476153,294,68
476162,311,68
476172,289,68
476182,304,68
476193,306,68
476203,293,68
476211,315,68
476224,302,68
476234,305,68
476245,317,68
476255,298,68
476265,322,68
476276,309,68
476286,308,68
476296,322,68
476306,304,68
476316,316,68
476325,314,68
476336,303,68
476348,322,68
476356,305,68
476368,311,68
476378,318,68
476389,302,68
476399,321,68
476409,311,68
476420,310,68
476429,322,68
476440,305,68
476450,322,68
476460,319,68
476470,308,68
476480,330,68
476491,312,68
476502,318,68
476512,329,68
476522,311,68
476530,329,68
476541,318,68
476553,313,68
476562,330,68
476573,311,68
476584,336,68
476593,336,68
476604,324,68
476614,337,68
476624,318,68
476635,324,68
476645,331,68
476654,310,68
476666,333,68
476675,320,68
476686,316,68
476695,300,68
476706,273,68
476717,445,68
476726,650,69
476737,652,69
476747,498,69
476758,263,69
476769,331,69
476779,307,69
476789,291,69
476799,313,69
476808,302,69
476820,302,69
476830,320,69
476840,304,69
476850,318,69
476860,321,69
476871,310,69
476881,333,69
476892,322,69
476902,330,69
476912,343,69
476923,331,69
476933,356,69
476942,351,69
476953,352,69
476961,373,69
476974,357,69
476984,367,69
476995,361,69
477004,328,69
477014,334,69
477025,308,69
477036,302,69
477046,310,69
477055,291,69
477067,308,69
477076,305,69
477087,295,69
477096,315,69
477107,300,69
477118,310,69
477126,312,69
477138,300,69
477148,319,69
477158,304,69
477169,309,69
477178,318,69
477188,300,69
477198,318,69
477208,312,69
477220,307,69
477229,323,69
477240,302,69
477250,316,69
477260,318,69
477270,300,69
477281,324,69
477290,309,69
477302,315,69
477312,320,69
477323,306,69
477333,323,69
477342,315,69
477354,310,69
477363,328,69
477374,308,69
477384,321,69
477391,324,69
477405,307,69
477415,329,69
477425,316,69
477436,318,69
477446,326,69
477456,311,69
477467,327,69
477476,329,69
477487,324,69
477496,339,69
477508,320,69
477517,329,69
477528,328,69
477538,314,69
477548,332,69
477558,319,69
477569,320,69
477579,330,69
477589,293,69
477600,276,69
477610,375,69
477621,586,68
477631,652,68
477640,612,68
477652,266,68
477661,332,68
477671,299,68
477679,310,68
477692,300,68
477702,303,68
477713,321,68
477723,302,68
477734,323,68
477743,316,68
477753,313,68
477763,333,68
477773,317,68
477785,331,68
477794,338,68
477804,328,68
477814,354,68
477824,344,68
477836,353,68
477845,369,68
477857,354,68
477867,376,68
477877,371,68
477887,359,68
477896,360,68
477908,326,68
477918,318,68
477928,310,68
477938,294,68
477948,311,68
477958,299,68
477970,300,68
477979,312,68
477989,299,68
477999,312,68
478010,309,68
478022,300,68
478031,320,68
478041,304,68
478051,311,68
478060,315,68
478072,303,68
478082,321,68
478092,309,68
478103,310,68
478112,318,68
478123,303,68
478133,317,68
478144,313,68
478154,305,68
478165,320,68
478175,305,68
478185,315,68
478194,320,68
478206,305,68
478216,324,68
478225,312,68
478235,312,68
478246,323,68
478256,309,68
478267,323,68
478276,320,68
478288,314,68
478298,328,68
478307,309,68
478317,322,68
478329,326,68
478339,318,68
478349,342,68
478360,327,68
478370,324,68
478379,336,68
478390,315,68
478400,332,68
478410,323,68
478421,316,68
478432,331,68
478440,317,68
478452,302,68
478461,282,68
478473,374,68
478482,602,69
478492,651,69
478502,523,69
478513,257,69
478523,315,69
478532,315,69
478544,308,69
478555,302,69
478565,318,69
478574,306,69
478584,312,69
478595,323,69
478606,314,69
478616,331,69
478625,324,69
478637,328,69
478647,341,69
478656,326,69
478668,349,69
478677,348,69
478688,348,69
478699,373,69
478709,363,69
478719,371,69
478729,383,69
478739,372,69
478748,374,69
478758,346,69
478771,326,69
478777,323,69
478790,293,69
478800,306,69
478811,304,69
478822,291,69
478831,310,69
478840,298,69
478853,305,69
478862,311,69
478872,300,69
478882,314,69
478892,308,69
478903,308,69
478912,320,69
478924,306,69
478931,313,69
478944,315,69
478955,305,69
478965,322,69
478974,304,69
478986,314,69
478996,316,69
479006,303,69
479017,322,69
479026,308,69
479037,308,69
479046,326,69
479057,303,69
479067,319,69
479078,321,69
479088,306,69
479097,326,69
479109,310,69
479119,318,69
479128,322,69
479140,309,69
479150,326,69
479159,316,69
479171,325,69
479179,337,69
479190,319,69
479201,328,69
479211,327,69
479221,312,69
479232,331,69
479242,312,69
479252,319,69
479263,325,69
479273,302,69
479282,280,69
479293,318,69
479303,525,69
479313,651,69
479323,644,69
479335,279,69
479344,305,69
479355,311,69
479365,309,69
479376,300,69
479386,306,69
479396,316,69
479407,302,69
479417,322,69
479427,317,69
479437,314,69
479447,332,69
479456,317,69
479469,335,69
479477,334,69
479489,329,69
479499,355,69
479509,341,69
479519,355,69
479529,367,69
479541,351,69
479551,375,69
479559,368,69
479571,359,69
479582,359,69
479590,323,69
479602,318,69
479612,309,69
479622,295,69
479633,311,69
479643,294,69
479653,301,69
479663,309,69
479674,294,69
479684,311,69
479693,305,69
479704,301,69
479715,317,69
479723,300,69
479735,315,69
479745,313,69
479756,304,69
479765,321,69
479776,303,69
479786,311,69
479797,318,69
479807,303,69
479817,319,69
479828,311,69
479838,308,69
479848,321,69
479858,304,69
479869,319,69
479879,317,69
479889,305,69
479899,325,69
479910,309,69
479920,314,69
479930,326,69
479941,308,69
479951,324,69
479960,318,69
479971,313,69
479982,327,69
479992,311,69
480002,323,69
480013,330,69
480023,320,69
480032,340,69
480043,321,69
480053,322,69
480063,332,69
480073,312,69
480085,330,69
480095,320,69
480105,315,69
480115,328,69
480125,277,69
480135,287,69
480145,452,69
480156,645,69
480165,652,69
480176,457,69
480187,268,69
480194,339,69
480207,292,69
480217,311,69
480228,304,69
480238,304,69
480249,320,69
480259,304,69
480269,318,69
480279,322,69
480290,311,69
480299,332,69
480310,321,69
480321,327,69
480330,343,69
480341,328,69
480351,351,69
480362,348,69
480372,349,69
480382,371,69
480392,353,69
480403,370,69
480413,371,69
480423,350,69
480432,352,69
480442,321,69
480454,310,69
480464,315,69
480474,294,69
480485,310,69
480494,304,69
480504,296,69
480515,313,69
480524,299,69
480535,310,69
480546,313,69
480556,301,69
480566,322,69
480577,308,69
480587,313,69
480596,318,69
480607,305,69
480619,320,69
480628,312,69
480638,306,69
480648,321,69
480659,302,69
480669,314,69
480679,318,69
480690,302,69
480700,322,69
480710,309,69
480720,314,69
480731,322,69
480740,306,69
480750,324,69
480761,318,69
480772,313,69
480782,330,69
480792,312,69
480803,324,69
480813,326,69
480823,314,69
480833,333,69
480843,316,69
480855,320,69
480865,332,69
480874,317,69
480884,339,69
480894,333,69
480906,324,69
480916,339,69
480926,315,69
480937,329,69
480946,328,69
480957,312,69
480967,332,69
480977,318,69
480987,314,69
480997,285,69
481007,301,69
481019,521,69
481029,652,69
481039,651,69
481049,337,69
481059,289,69
481069,322,69
481080,304,69
481090,294,69
481101,313,69
481111,302,69
481121,307,69
481131,322,69
481140,309,69
481150,322,69
481161,322,69
481172,318,69
481183,339,69
481193,323,69
481203,335,69
481213,346,69
481224,337,69
481234,360,69
481244,354,69
481255,359,69
481265,375,69
481274,362,69
481284,375,69
481295,356,69
481306,334,69
481316,333,69
481325,305,69
481336,308,69
481345,311,69
481357,296,69
481368,316,69
481376,304,69
481388,304,69
481398,320,69
481407,299,69
481415,318,69
481429,313,69
481436,305,69
481449,323,69
481460,305,69
481470,313,69
481480,320,69
481490,303,69
481500,321,69
481511,308,69
481521,306,69
481532,321,69
481542,303,69
481552,318,69
481562,314,69
481573,306,69
481583,323,69
481594,308,69
481604,313,69
481613,320,69
481625,307,69
481634,320,69
481645,316,69
481654,312,69
481664,324,69
481676,310,69
481685,325,69
481696,319,69
481706,311,69
481716,327,69
481727,315,69
481734,329,69
481746,334,69
481756,314,69
481766,329,69
481778,321,69
481788,317,69
481798,329,69
481809,309,69
481817,322,69
481829,320,69
481839,289,69
481850,287,69
481860,377,69
481870,591,69
481879,652,69
481891,516,69
481900,251,69
481911,325,69
481920,301,69
481931,311,69
481942,297,69
481952,313,69
481963,314,69
481973,305,69
481984,323,69
481994,314,69
482004,319,69
482013,331,69
482025,317,69
482033,337,69
482046,332,69
482055,336,69
482065,355,69
482076,343,69
482086,360,69
482096,367,69
482107,358,69
482117,383,69
482127,369,69
482138,362,69
482145,354,69
482158,316,69
482167,319,69
482178,303,69
482188,294,69
482198,308,69
482210,287,69
482218,305,69
482229,306,69
482239,292,69
482249,312,69
482261,299,69
482271,304,69
482281,311,69
482291,297,69
482301,314,69
482312,308,69
482322,303,69
482332,319,69
482342,300,69
482352,311,69
482362,310,69
482374,300,69
482383,320,69
482394,304,69
482405,310,69
482415,317,69
482425,301,69
482435,318,69
482446,312,69
482456,308,69
482465,323,69
482476,308,69
482485,317,69
482496,318,69
482507,304,69
482517,332,69
482528,320,69
482538,326,69
482547,334,69
482557,312,69
482567,330,69
482579,319,69
482589,314,69
482598,330,69
482610,310,69
482620,323,69
482629,309,69
482639,267,69
482651,376,69
482661,573,69
482670,650,69
482682,558,69
482692,231,69
482702,328,69
482712,312,69
482721,298,69
482732,320,69
482743,301,69
482752,317,69
482763,323,69
482773,310,69
482784,333,69
482794,323,69
482803,328,69
482813,343,69
482824,324,69
482836,348,69
482846,346,69
482856,345,69
482867,366,69
482876,354,69
482885,372,69
482896,376,69
482907,368,69
482917,386,69
482928,363,69
482938,347,69
482947,338,69
482957,306,69
482968,314,69
482979,304,69
482988,297,69
482999,311,69
483009,296,69
483019,309,69
483030,312,69
483040,299,69
483051,320,69
483061,305,69
483070,311,69
483082,321,69
483092,306,69
483101,318,69
483113,314,69
483123,309,69
483133,322,69
483143,304,69
483153,315,69
483163,317,69
483173,306,69
483184,326,69
483195,308,69
483205,313,69
483215,324,69
483226,307,69
483234,321,69
483246,316,69
483255,310,69
483266,328,69
483277,309,69
483286,320,69
483296,324,69
483307,306,69
483317,330,69
483328,313,69
483337,322,69
483348,340,69
483358,317,69
483367,335,69
483379,325,69
483390,315,69
483400,333,69
483410,313,69
483419,321,69
483429,324,69
483441,308,69
483451,313,69
483462,262,69
483471,358,69
483482,593,70
483493,652,70
483503,627,70
483513,267,70
483523,315,70
483533,320,70
483544,288,70
483554,305,70
483564,310,70
483573,298,70
483584,320,70
483595,309,70
483605,313,70
483614,327,70
483626,309,70
483635,331,70
483647,327,70
483655,321,70
483666,346,70
483677,329,70
483687,349,70
483697,355,70
483707,345,70
483717,369,70
483729,356,70
483739,361,70
483748,369,70
483760,335,70
483769,338,70
483780,317,70
483790,302,70
483799,313,70
483811,297,70
483820,305,70
483830,311,70
483840,297,70
483851,316,70
483863,304,70
483872,308,70
483882,320,70
483893,301,70
483902,319,70
483913,313,70
483923,304,70
483933,324,70
483944,302,70
483953,314,70
483964,318,70
483975,303,70
483984,321,70
483996,310,70
484004,311,70
484015,323,70
484025,306,70
484035,323,70
484046,316,70
484056,310,70
484068,327,70
484078,310,70
484088,318,70
484097,325,70
484107,308,70
484118,328,70
484129,314,70
484139,313,70
484149,329,70
484159,309,70
484169,334,70
484179,330,70
484191,319,70
484200,335,70
484211,316,70
484222,323,70
484230,327,70
484242,312,70
484252,328,70
484263,315,70
484273,316,70
484283,302,70
484293,263,70
484303,417,70
484314,626,70
484324,652,70
484334,536,70
484345,252,70
484355,331,70
484364,309,70
484374,289,70
484384,312,70
484396,303,70
484406,303,70
484416,319,70
484427,303,70
484436,324,70
484447,321,70
484457,313,70
484466,334,70
484478,317,70
484487,331,70
484497,343,70
484507,330,70
484518,355,70
484529,351,70
484540,354,70
484550,365,70
484560,357,70
484568,369,70
484580,360,70
484591,334,70
484601,333,70
484612,304,70
484620,303,70
484632,309,70
484642,294,70
484651,306,70
484662,301,70
484671,298,70
484682,312,70
484694,296,70
484703,309,70
484714,310,70
484724,300,70
484735,318,70
484745,304,70
484755,307,70
484766,320,70
484776,301,70
484786,315,70
484797,309,70
484807,304,70
484815,320,70
484826,301,70
484836,317,70
484846,313,70
484856,303,70
484868,321,70
484879,307,70
484888,313,70
484899,322,70
484909,303,70
484918,323,70
484930,316,70
484939,312,70
484950,325,70
484960,309,70
484969,320,70
484980,323,70
484990,307,70
485002,337,70
485012,324,70
485021,326,70
485030,333,70
485043,313,70
485053,329,70
485063,322,70
485074,317,70
485084,330,70
485094,312,70
485103,322,70
485113,302,70
485125,270,70
485134,415,70
485145,610,71
485156,651,71
485166,478,71
485176,239,71
485186,334,71
485197,307,71
485207,301,71
485216,320,71
485227,304,71
485237,315,71
485247,321,71
485258,306,71
485267,331,71
485279,323,71
485288,319,71
485299,336,71
485309,322,71
485319,343,71
485330,341,71
485340,340,71
485350,362,71
485360,349,71
485369,364,71
485380,371,71
485390,359,71
485400,375,71
485412,354,71
485421,334,71
485433,322,71
485443,289,71
485452,301,71
485463,290,71
485473,285,71
485483,299,71
485491,285,71
485503,295,71
485511,301,71
485524,291,71
485534,308,71
485545,297,71
485555,301,71
485566,312,71
485576,295,71
485587,313,71
485597,308,71
485607,299,71
485617,315,71
485628,301,71
485638,308,71
485647,312,71
485655,298,71
485668,315,71
485679,306,71
485689,305,71
485699,320,71
485708,302,71
485719,318,71
485730,316,71
485740,302,71
485751,324,71
485761,311,71
485771,313,71
485781,329,71
485792,317,71
485802,335,71
485812,318,71
485823,318,71
485833,327,71
485842,311,71
485852,326,71
485864,320,71
485873,313,71
485884,328,71
485893,279,71
485904,293,71
485915,476,71
485925,635,72
485935,649,72
485946,334,72
485956,273,72
485967,336,72
485977,293,72
485987,315,72
485997,314,72
486006,306,72
486018,328,72
486027,312,72
486038,325,72
486049,331,72
486058,320,72
486069,341,72
486079,330,72
486090,335,72
486100,352,72
486110,337,72
486119,360,72
486130,362,72
486140,357,72
486151,379,72
486161,368,72
486170,376,72
486182,379,72
486192,344,72
486202,342,72
486213,314,72
486223,305,72
486233,311,72
486242,291,72
486252,305,72
486265,303,72
486273,291,72
486285,314,72
486294,296,72
486306,308,72
486316,315,72
486325,299,72
486336,317,72
486344,307,72
486356,309,72
486367,321,72
486377,303,72
486386,317,72
486398,316,72
486407,304,72
486418,324,72
486429,308,72
486439,316,72
486449,318,72
486458,305,72
486470,326,72
486480,312,72
486489,312,72
486500,325,72
486509,310,72
486521,326,72
486530,322,72
486542,309,72
486552,331,72
486560,313,72
486571,329,72
486581,337,72
486592,320,72
486602,335,72
486613,322,72
486623,319,72
486634,334,72
486643,314,72
486654,328,72
486664,327,72
486675,315,72
486686,309,72
486696,267,72
486704,403,72
486716,632,72
486726,652,72
486735,560,72
486747,261,72
486757,324,72
486767,317,72
486777,294,72
486787,312,72
486798,311,72
486807,303,72
486819,324,72
486829,311,72
486839,316,72
486849,328,72
486859,312,72
486869,335,72
486880,328,72
486889,332,72
486901,350,72
486911,335,72
486921,353,72
486931,359,72
486940,351,72
486952,375,72
486962,362,72
486971,367,72
486983,367,72
486993,331,72
487002,333,72
487013,313,72
487023,304,72
487034,316,72
487043,298,72
487055,307,72
487065,314,72
487075,296,72
487085,318,72
487096,304,72
487106,308,72
487116,319,72
487125,303,72
487135,321,72
487147,312,72
487156,308,72
487168,324,72
487177,306,72
487188,318,72
487198,319,72
487208,303,72
487219,326,72
487229,312,72
487239,316,72
487250,323,72
487259,309,72
487269,324,72
487279,318,72
487290,313,72
487301,332,72
487311,312,72
487321,324,72
487332,327,72
487340,313,72
487352,332,72
487362,318,72
487373,321,72
487383,329,72
487392,315,72
487402,329,72
487414,328,72
487423,327,72
487435,340,72
487443,321,72
487454,329,72
487465,331,72
487475,316,72
487486,333,72
487496,320,72
487506,317,72
487517,334,72
487526,295,72
487537,278,72
487548,347,72
487557,567,72
487568,652,72
487577,648,72
487589,287,72
487599,325,72
487609,303,72
487619,310,72
487629,300,72
487640,304,72
487650,317,72
487659,302,72
487671,322,72
487681,317,72
487690,311,72
487701,332,72
487711,317,72
487721,329,72
487732,336,72
487742,325,72
487752,351,72
487762,344,72
487773,349,72
487783,369,72
487793,354,72
487803,372,72
487813,373,72
487825,357,72
487835,356,72
487844,321,72
487855,316,72
487865,314,72
487875,295,72
487886,314,72
487896,300,72
487906,301,72
487917,316,72
487927,296,72
487937,313,72
487947,309,72
487957,303,72
487968,321,72
487978,302,72
487988,314,72
487999,316,72
488007,302,72
488019,321,72
488029,315,72
488040,305,72
488051,321,72
488061,302,72
488070,317,72
488080,314,72
488090,307,72
488102,321,72
488112,306,72
488121,313,72
488131,320,72
488143,304,72
488152,322,72
488164,313,72
488174,312,72
488184,327,72
488193,307,72
488203,321,72
488215,321,72
488223,311,72
488235,325,72
488246,312,72
488255,319,72
488266,327,72
488275,318,72
488285,337,72
488295,326,72
488307,313,72
488317,331,72
488327,311,72
488336,324,72
488345,322,72
488357,308,72
488369,324,72
488378,304,72
488388,268,72
488400,312,72
488409,502,72
488419,651,72
488429,650,72
488441,288,72
488451,306,72
488461,308,72
488470,296,72
488480,302,72
488490,292,72
488502,315,72
488511,303,72
488523,306,72
488533,322,72
488543,306,72
488553,325,72
488563,320,72
488573,320,72
488585,339,72
488593,328,72
488605,344,72
488615,352,72
488622,346,72
488636,374,72
488646,359,72
488656,372,72
488664,380,72
488676,359,72
488685,353,72
488697,329,72
488707,307,72
488717,311,72
488728,288,72
488738,298,72
488747,298,72
488759,292,72
488769,306,72
488778,292,72
488788,299,72
488799,308,72
488810,293,72
488819,310,72
488828,308,72
488841,297,72
488850,316,72
488862,304,72
488870,312,72
488882,312,72
488891,300,72
488903,321,72
488913,304,72
488922,308,72
488934,316,72
488944,302,72
488954,313,72
488964,310,72
488974,302,72
488985,320,72
488994,304,72
489005,313,72
489015,320,72
489025,305,72
489036,324,72
489045,314,72
489057,312,72
489067,326,72
489077,308,72
489087,323,72
489095,330,72
489107,320,72
489117,335,72
489129,315,72
489138,326,72
489148,328,72
489159,314,72
489169,332,72
489179,318,72
489190,317,72
489200,318,72
489211,271,72
489220,340,72
489229,550,73
489241,649,73
489251,595,73
489261,247,73
489272,312,73
489282,325,73
489291,296,73
489303,318,73
489313,309,73
489323,313,73
489333,327,73
489344,312,73
489352,330,73
489364,330,73
489373,318,73
489385,342,73
489394,331,73
489405,339,73
489415,355,73
489425,342,73
489436,368,73
489446,363,73
489456,372,73
489467,388,73
489477,375,73
489486,388,73
489494,372,73
489508,342,73
489518,339,73
489529,308,73
489538,306,73
489548,310,73
489559,293,73
489569,306,73
489579,299,73
489589,298,73
489599,312,73
489610,297,73
489621,313,73
489630,311,73
489641,303,73
489651,322,73
489662,308,73
489672,313,73
489682,321,73
489693,303,73
489703,326,73
489712,313,73
489723,309,73
489734,327,73
489743,305,73
489755,318,73
489765,316,73
489775,304,73
489785,327,73
489796,307,73
489806,317,73
489816,324,73
489825,307,73
489837,327,73
489846,317,73
489856,315,73
489866,331,73
489877,308,73
489888,325,73
489897,324,73
489909,314,73
489919,329,73
489929,315,73
489939,320,73
489949,340,73
489959,324,73
489969,337,73
489979,330,73
489990,323,73
489998,337,73
490011,317,73
490020,328,73
490028,329,73
490041,314,73
490051,332,73
490063,280,73
490073,280,73
490082,461,73
490093,650,72
490103,653,72
490113,466,72
490124,267,72
490134,342,72
490143,293,72
490153,305,72
490164,314,72
490176,298,72
490186,321,72
490196,310,72
490205,314,72
490215,326,72
490227,312,72
490236,331,72
490246,327,72
490256,324,72
490268,344,72
490278,331,72
490288,347,72
490299,355,72
490309,348,72
490318,373,72
490329,363,72
490339,370,72
490349,379,72
490360,349,72
490369,347,72
490380,323,72
490391,306,72
490401,317,72
490411,297,72
490421,307,72
490431,311,72
490441,298,72
490451,318,72
490463,304,72
490473,306,72
490482,318,72
490493,301,72
490503,317,72
490513,314,72
490525,307,72
490535,323,72
490545,308,72
490555,317,72
490564,317,72
490576,305,72
490586,323,72
490597,310,72
490606,312,72
490616,322,72
490626,305,72
490636,320,72
490646,318,72
490657,309,72
490667,328,72
490678,310,72
490688,319,72
490699,325,72
490709,309,72
490719,327,72
490730,318,72
490738,314,72
490749,330,72
490761,311,72
490769,326,72
490780,324,72
490791,313,72
490801,334,72
490812,314,72
490822,325,72
490832,332,72
490842,311,72
490851,334,72
490864,321,72
490874,322,72
490882,346,72
490894,322,72
490904,335,72
490914,331,72
490924,318,72
490934,336,72
490945,319,72
490955,323,72
490966,335,72
490976,310,72
490984,321,72
490997,267,72
491005,329,72
491017,567,71
491027,652,71
491038,651,71
491048,313,71
491059,304,71
491068,324,71
491079,294,71
491088,301,71
491098,313,71
491110,297,71
491120,318,71
491130,310,71
491140,308,71
491150,327,71
491160,312,71
491172,327,71
491182,326,71
491192,318,71
491201,343,71
491212,330,71
491223,341,71
491232,357,71
491243,347,71
491252,368,71
491263,365,71
491274,364,71
491285,376,71
491294,345,71
491305,337,71
491315,323,71
491325,299,71
491334,313,71
491345,299,71
491355,300,71
491366,312,71
491376,296,71
491386,315,71
491397,306,71
491407,304,71
491417,318,71
491428,304,71
491438,311,71
491449,316,71
491459,302,71
491469,320,71
491479,308,71
491489,310,71
491499,319,71
491509,301,71
491519,318,71
491530,311,71
491541,306,71
491551,321,71
491561,306,71
491571,315,71
491582,320,71
491592,306,71
491602,323,71
491613,311,71
491623,311,71
491632,325,71
491643,306,71
491651,321,71
491664,318,71
491674,310,71
491684,327,71
491695,310,71
491705,320,71
491715,326,71
491725,308,71
491735,329,71
491746,320,71
491756,316,71
491766,329,71
491776,313,71
491786,326,71
491797,325,71
491807,314,71
491816,329,71
491828,316,71
491838,321,71
491848,331,71
491859,324,71
491868,341,71
491878,323,71
491890,322,71
491899,335,71
491910,316,71
491919,326,71
491931,326,71
491941,312,71
491950,331,71
491962,286,71
491971,273,71
491982,425,71
491992,620,70
492002,652,70
492013,483,70
492024,251,70
492034,335,70
492044,292,70
492053,305,70
492064,309,70
492074,298,70
492084,320,70
492095,304,70
492105,311,70
492115,323,70
492125,313,70
492135,331,70
492145,324,70
492155,323,70
492166,343,70
492176,331,70
492187,348,70
492198,353,70
492208,347,70
492217,374,70
492227,365,70
492239,370,70
492249,381,70
492259,356,70
492268,352,70
492280,325,70
492287,305,70
492299,312,70
492310,292,70
492320,300,70
492331,305,70
492340,290,70
492352,307,70
492362,296,70
