Timestamp,ECGValue,BPM
1238696,313,80
1238706,320,80
1238717,298,80
1238727,326,80
1238736,307,80
1238747,306,80
1238757,328,80
1238767,297,80
1238778,320,80
1238788,315,80
1238799,301,80
1238809,327,80
1238820,302,80
1238829,315,80
1238839,324,80
1238849,300,80
1238861,340,80
1238871,325,80
1238880,317,80
1238891,331,80
1238900,301,80
1238911,323,80
1238921,315,80
1238932,300,80
1238943,329,80
1238951,302,80
1238961,309,80
1238973,282,80
1238982,257,80
1238994,480,80
1239003,651,83
1239014,652,83
1239025,413,83
1239034,251,83
1239044,333,83
1239054,301,83
1239066,286,83
1239076,317,83
1239087,294,83
1239097,305,83
1239107,321,83
1239116,299,83
1239127,329,83
1239136,318,83
1239146,315,83
1239158,342,83
1239168,317,83
1239177,342,83
1239189,345,83
1239199,330,83
1239209,366,83
1239219,344,83
1239230,354,83
1239236,370,83
1239248,349,83
1239261,370,83
1239270,341,83
1239280,318,83
1239292,329,83
1239301,292,83
1239311,310,83
1239321,308,83
1239333,290,83
1239343,321,83
1239352,298,83
1239364,308,83
1239374,323,83
1239384,295,83
1239394,321,83
1239405,311,83
1239414,301,83
1239424,327,83
1239434,298,83
1239445,315,83
1239456,317,83
1239466,298,83
1239477,326,83
1239486,307,83
1239495,309,83
1239507,324,83
1239518,299,83
1239528,325,83
1239537,315,83
1239548,306,83
1239558,332,83
1239568,305,83
1239579,323,83
1239590,324,83
1239599,302,83
1239610,334,83
1239620,314,83
1239630,317,83
1239641,336,83
1239651,304,83
1239661,341,83
1239670,335,83
1239680,320,83
1239690,340,83
1239701,311,83
1239712,328,83
1239723,331,83
1239732,308,83
1239744,336,83
1239753,317,83
1239763,313,83
1239774,296,83
1239783,270,83
1239795,486,83
1239804,651,84
1239814,651,84
1239825,368,84
1239834,263,84
1239845,331,84
1239855,312,84
1239865,292,84
1239877,324,84
1239886,305,84
1239897,308,84
1239907,333,84
1239916,305,84
1239927,332,84
1239938,328,84
1239947,320,84
1239959,349,84
1239968,325,84
1239979,344,84
1239989,355,84
1239999,333,84
1240010,367,84
1240020,351,84
1240031,353,84
1240041,377,84
1240051,353,84
1240062,375,84
1240072,356,84
1240082,325,84
1240092,340,84
1240101,302,84
1240113,311,84
1240123,318,84
1240133,292,84
1240144,325,84
1240153,307,84
1240162,307,84
1240175,330,84
1240185,297,84
1240195,323,84
1240205,318,84
1240214,301,84
1240226,331,84
1240236,301,84
1240246,314,84
1240256,324,84
1240265,295,84
1240277,325,84
1240286,308,84
1240297,302,84
1240307,327,84
1240317,295,84
1240328,319,84
1240338,316,84
1240348,297,84
1240359,330,84
1240369,301,84
1240380,313,84
1240390,327,84
1240399,298,84
1240411,330,84
1240421,311,84
1240430,308,84
1240442,335,84
1240450,302,84
1240462,325,84
1240472,322,84
1240482,304,84
1240492,335,84
1240502,309,84
1240513,319,84
1240523,333,84
1240534,302,84
1240542,336,84
1240553,330,84
1240564,322,84
1240575,345,84
1240583,308,84
1240595,330,84
1240604,327,84
1240615,303,84
1240626,338,84
1240636,309,84
1240647,317,84
1240657,300,84
1240667,249,84
1240677,434,84
1240687,646,84
1240696,653,84
1240707,553,84
1240718,242,84
1240728,340,84
1240738,308,84
1240748,283,84
1240760,319,84
1240770,296,84
1240780,306,84
1240789,325,84
1240799,296,84
1240811,329,84
1240821,317,84
1240830,313,84
1240840,345,84
1240851,313,84
1240862,337,84
1240871,344,84
1240882,323,84
1240893,360,84
1240903,340,84
1240914,347,84
1240924,367,84
1240934,340,84
1240944,371,84
1240954,351,84
1240963,329,84
1240974,342,84
1240985,300,84
1240995,312,84
1241005,314,84
1241015,289,84
1241027,324,84
1241036,301,84
1241046,305,84
1241056,327,84
1241067,294,84
1241078,324,84
1241086,314,84
1241097,302,84
1241109,331,84
1241118,299,84
1241129,315,84
1241138,323,84
1241149,297,84
1241160,328,84
1241170,306,84
1241181,307,84
1241191,327,84
1241201,297,84
1241212,323,84
1241222,314,84
1241230,300,84
1241242,332,84
1241252,302,84
1241262,318,84
1241272,325,84
1241283,300,84
1241293,332,84
1241304,309,84
1241314,310,84
1241324,333,84
1241334,302,84
1241344,329,84
1241354,323,84
1241365,308,84
1241375,339,84
1241385,309,84
1241396,324,84
1241406,334,84
1241415,307,84
1241425,340,84
1241437,321,84
1241448,320,84
1241456,343,84
1241467,318,84
1241477,349,84
1241487,338,84
1241499,317,84
1241509,350,84
1241518,321,84
1241530,330,84
1241540,337,84
1241549,309,84
1241559,337,84
1241570,318,84
1241581,315,84
1241589,338,84
1241601,297,84
1241611,277,84
1241621,311,84
1241632,518,82
1241642,653,82
1241652,652,82
1241663,350,82
1241673,312,82
1241683,308,82
1241694,314,82
1241702,299,82
1241714,298,82
1241724,325,82
1241733,295,82
1241745,323,82
1241755,321,82
1241765,305,82
1241774,340,82
1241784,315,82
1241796,327,82
1241805,344,82
1241817,319,82
1241827,352,82
1241837,343,82
1241848,340,82
1241856,371,82
1241869,338,82
1241879,364,82
1241888,365,82
1241899,345,82
1241908,366,82
1241918,324,82
1241930,316,82
1241938,325,82
1241950,288,82
1241960,317,82
1241969,303,82
1241981,296,82
1241991,322,82
1242001,293,82
1242011,314,82
1242020,317,82
1242032,294,82
1242042,329,82
1242051,303,82
1242063,309,82
1242070,326,82
1242083,294,82
1242094,324,82
1242105,311,82
1242114,301,82
1242124,328,82
1242135,297,82
1242146,316,82
1242156,319,82
1242166,296,82
1242175,328,82
1242185,306,82
1242196,309,82
1242203,330,82
1242216,297,82
1242224,327,82
1242238,318,82
1242248,304,82
1242259,335,82
1242268,304,82
1242278,323,82
1242289,327,82
1242299,302,82
1242309,336,82
1242319,316,82
1242330,316,82
1242339,338,82
1242350,306,82
1242360,335,82
1242370,326,82
1242382,311,82
1242392,344,82
1242401,310,82
1242411,327,82
1242421,336,82
1242433,313,82
1242443,357,82
1242453,328,82
1242464,323,82
1242471,347,82
1242484,315,82
1242495,340,82
1242503,328,82
1242515,308,82
1242524,339,82
1242536,308,82
1242546,322,82
1242555,331,82
1242566,300,82
1242576,294,82
1242586,274,82
1242596,460,82
1242607,652,79
1242617,653,79
1242627,456,79
1242637,276,79
1242649,315,79
1242658,319,79
1242669,289,79
1242679,304,79
1242690,318,79
1242699,292,79
1242709,327,79
1242720,311,79
1242730,310,79
1242740,338,79
1242750,307,79
1242761,335,79
1242771,335,79
1242782,320,79
1242793,357,79
1242802,333,79
1242812,348,79
1242822,364,79
1242833,337,79
1242844,372,79
1242852,357,79
1242864,352,79
1242873,370,79
1242884,322,79
1242894,330,79
1242904,317,79
1242915,290,79
1242926,321,79
1242936,291,79
1242946,302,79
1242954,317,79
1242965,287,79
1242975,320,79
1242986,306,79
1242998,299,79
1243008,327,79
1243018,295,79
1243028,315,79
1243038,318,79
1243048,295,79
1243058,329,79
1243070,301,79
1243079,308,79
1243088,326,79
1243100,293,79
1243110,325,79
1243121,310,79
1243131,303,79
1243141,330,79
1243151,298,79
1243161,319,79
1243171,321,79
1243182,299,79
1243192,333,79
1243203,307,79
1243211,312,79
1243223,331,79
1243234,300,79
1243243,331,79
1243254,319,79
1243265,309,79
1243273,339,79
1243285,307,79
1243295,328,79
1243304,332,79
1243315,307,79
1243324,341,79
1243335,317,79
1243347,322,79
1243356,340,79
1243366,310,79
1243377,339,79
1243387,328,79
1243398,316,79
1243408,347,79
1243418,318,79
1243429,347,79
1243438,352,79
1243450,320,79
1243458,352,79
1243469,331,79
1243480,331,79
1243489,346,79
1243500,313,79
1243510,337,79
1243519,329,79
1243532,313,79
1243542,343,79
1243551,312,79
1243562,298,79
1243573,280,79
1243583,395,79
1243589,649,76
1243602,653,76
1243612,578,76
1243623,279,76
1243634,320,76
1243643,322,76
1243653,309,76
1243665,296,76
1243674,328,76
1243685,302,76
1243694,317,76
1243706,329,76
1243716,305,76
1243725,338,76
1243736,323,76
1243745,323,76
1243756,349,76
1243768,322,76
1243776,350,76
1243786,350,76
1243798,338,76
1243807,373,76
1243819,348,76
1243829,361,76
1243838,375,76
1243850,348,76
1243860,375,76
1243870,341,76
1243881,321,76
1243890,332,76
1243900,293,76
1243910,312,76
1243920,309,76
1243932,290,76
1243941,321,76
1243952,296,76
1243962,307,76
1243973,321,76
1243983,293,76
1243992,324,76
1244003,308,76
1244011,303,76
1244023,328,76
1244033,297,76
1244045,317,76
1244054,318,76
1244062,296,76
1244074,329,76
1244086,300,76
1244092,309,76
1244106,322,76
1244116,295,76
1244126,324,76
1244137,309,76
1244148,302,76
1244156,330,76
1244168,297,76
1244178,320,76
1244187,319,76
1244198,298,76
1244208,332,76
1244218,305,76
1244228,313,76
1244239,329,76
1244249,299,76
1244259,331,76
1244270,317,76
1244280,309,76
1244291,337,76
1244301,305,76
1244310,326,76
1244322,326,76
1244330,302,76
1244341,336,76
1244353,310,76
1244362,317,76
1244373,337,76
1244383,304,76
1244393,334,76
1244403,321,76
1244414,314,76
1244424,354,76
1244434,319,76
1244443,334,76
1244456,337,76
1244466,314,76
1244474,346,76
1244486,316,76
1244496,318,76
1244505,336,76
1244517,303,76
1244526,330,76
1244537,319,76
1244547,303,76
1244557,294,76
1244568,272,76
1244578,489,76
1244585,652,73
1244599,652,73
1244609,422,73
1244620,270,73
1244629,326,73
1244638,317,73
1244648,287,73
1244660,317,73
1244671,310,73
1244681,299,73
1244690,331,73
1244698,303,73
1244710,322,73
1244722,332,73
1244732,308,73
1244742,345,73
1244753,326,73
1244762,331,73
1244773,357,73
1244783,328,73
1244794,362,73
1244804,357,73
1244815,345,73
1244824,378,73
1244834,350,73
1244845,367,73
1244855,367,73
1244865,323,73
1244875,339,73
1244887,307,73
1244896,298,73
1244907,321,73
1244917,286,73
1244927,313,73
1244937,310,73
1244947,292,73
1244957,325,73
1244969,296,73
1244979,310,73
1244989,322,73
1244999,293,73
1245010,326,73
1245020,306,73
1245029,303,73
1245040,327,73
1245050,293,73
1245060,319,73
1245071,314,73
1245081,295,73
1245091,328,73
1245101,299,73
1245112,310,73
1245122,323,73
1245132,292,73
1245142,326,73
1245152,309,73
1245163,305,73
1245173,331,73
1245184,298,73
1245193,324,73
1245204,322,73
1245215,301,73
1245224,335,73
1245236,307,73
1245246,318,73
1245252,333,73
1245265,302,73
1245275,335,73
1245287,318,73
1245296,312,73
1245307,340,73
1245316,306,73
1245326,329,73
1245338,330,73
1245348,308,73
1245358,342,73
1245367,315,73
1245379,324,73
1245389,340,73
1245399,319,73
1245409,351,73
1245420,331,73
1245430,321,73
1245439,352,73
1245450,314,73
1245461,333,73
1245470,333,73
1245481,308,73
1245491,340,73
1245502,314,73
1245512,320,73
1245522,330,73
1245533,257,73
1245544,323,73
1245553,530,70
1245564,651,70
1245574,652,70
1245583,315,70
1245595,303,70
1245605,333,70
1245614,285,70
1245625,323,70
1245634,300,70
1245646,305,70
1245656,328,70
1245665,298,70
1245677,331,70
1245687,322,70
1245697,313,70
1245707,345,70
1245716,315,70
1245727,338,70
1245738,347,70
1245747,326,70
1245759,365,70
1245768,346,70
1245780,350,70
1245789,374,70
1245799,343,70
1245810,376,70
1245820,365,70
1245831,341,70
1245841,354,70
1245850,306,70
1245861,312,70
1245870,314,70
1245881,285,70
1245892,319,70
1245901,297,70
1245913,297,70
1245922,321,70
1245934,290,70
1245944,320,70
1245953,311,70
1245963,297,70
1245973,329,70
1245984,297,70
1245995,314,70
1246005,322,70
1246016,294,70
1246025,327,70
1246035,306,70
1246046,304,70
1246057,326,70
1246066,293,70
1246076,319,70
1246086,314,70
1246097,297,70
1246107,328,70
1246118,299,70
1246129,312,70
1246139,323,70
1246149,296,70
1246159,329,70
1246169,310,70
1246179,307,70
1246187,333,70
1246200,299,70
1246208,326,70
1246221,323,70
1246230,306,70
1246240,337,70
1246251,307,70
1246260,319,70
1246272,332,70
1246283,304,70
1246291,336,70
1246303,317,70
1246313,313,70
1246322,340,70
1246332,307,70
1246344,332,70
1246354,335,70
1246364,323,70
1246374,351,70
1246385,321,70
1246395,333,70
1246405,342,70
1246416,308,70
1246426,340,70
1246436,321,70
1246446,312,70
1246457,339,70
1246467,306,70
1246477,321,70
1246487,280,70
1246498,298,70
1246508,550,68
1246519,652,68
1246528,651,68
1246539,331,68
1246549,283,68
1246560,338,68
1246570,300,68
1246579,295,68
1246589,325,68
1246599,296,68
1246610,320,68
1246621,322,68
1246630,303,68
1246641,339,68
1246651,315,68
1246662,326,68
1246672,346,68
1246682,318,68
1246693,352,68
1246703,343,68
1246713,337,68
1246724,372,68
1246734,343,68
1246743,366,68
1246755,371,68
1246763,348,68
1246775,383,68
1246785,346,68
1246795,332,68
1246806,335,68
1246816,292,68
1246831,316,68
1246837,302,68
1246846,289,68
1246856,319,68
1246868,289,68
1246883,308,68
1246887,314,68
1246898,290,68
1246908,324,68
1246918,301,68
1246929,305,68
1246939,325,68
1246949,293,68
1246960,322,68
1246970,312,68
1246981,299,68
1246989,329,68
1246999,297,68
1247010,314,68
1247019,321,68
1247031,295,68
1247040,328,68
1247052,305,68
1247061,307,68
1247073,329,68
1247083,297,68
1247093,326,68
1247111,317,68
1247113,302,68
1247123,333,68
1247134,305,68
1247145,321,68
1247155,329,68
1247172,302,68
1247174,336,68
1247185,316,68
1247196,315,68
1247207,338,68
1247216,306,68
1247226,331,68
1247237,326,68
1247248,310,68
1247258,344,68
1247268,313,68
1247278,329,68
1247285,338,68
1247298,313,68
1247309,354,68
1247318,329,68
1247330,325,68
1247340,350,68
1247349,312,68
1247361,336,68
1247369,328,68
1247381,309,68
1247391,339,68
1247401,310,68
1247411,323,68
1247422,327,68
1247431,259,68
1247443,322,68
1247452,517,65
1247463,651,65
1247473,652,65
1247484,325,65
1247494,300,65
1247506,331,65
1247514,285,65
1247524,324,65
1247535,297,65
1247545,309,65
1247562,327,65
1247564,298,65
1247574,333,65
1247584,319,65
1247595,315,65
1247605,345,65
1247617,315,65
1247627,342,65
1247637,345,65
1247647,327,65
1247658,367,65
1247667,344,65
1247679,356,65
1247689,373,65
1247699,345,65
1247709,380,65
1247719,362,65
1247728,345,65
1247740,355,65
1247749,307,65
1247760,317,65
1247768,311,65
1247780,287,65
1247791,318,65
1247801,291,65
1247812,300,65
1247822,319,65
1247832,289,65
1247842,322,65
1247852,308,65
1247862,300,65
1247874,328,65
1247884,297,65
1247894,317,65
1247902,319,65
1247913,294,65
1247925,328,65
1247934,303,65
1247945,307,65
1247956,325,65
1247966,293,65
1247976,323,65
1247986,310,65
1247995,299,65
1248007,330,65
1248015,297,65
1248026,318,65
1248038,322,65
1248047,298,65
1248058,331,65
1248067,307,65
1248079,313,65
1248089,332,65
1248098,300,65
1248109,330,65
1248119,319,65
1248129,307,65
1248141,339,65
1248149,307,65
1248160,325,65
1248170,329,65
1248181,305,65
1248191,340,65
1248202,316,65
1248211,318,65
1248223,344,65
1248233,320,65
1248243,343,65
1248252,332,65
1248263,318,65
1248273,344,65
1248284,310,65
1248293,325,65
1248304,332,65
1248314,303,65
1248325,337,65
1248335,313,65
1248346,306,65
1248356,288,65
1248367,293,65
1248377,541,64
1248387,652,64
1248396,651,64
1248408,329,64
1248415,283,64
1248427,324,64
1248437,309,64
1248448,286,64
1248459,321,64
1248469,303,64
1248478,304,64
1248489,330,64
1248500,300,64
1248510,329,64
1248521,325,64
1248530,310,64
1248540,345,64
1248548,321,64
1248561,338,64
1248571,353,64
1248581,329,64
1248592,367,64
1248602,352,64
1248613,353,64
1248623,379,64
1248633,349,64
1248643,372,64
1248654,356,64
1248663,320,64
1248674,335,64
1248684,297,64
1248693,303,64
1248704,312,64
1248716,282,64
1248726,314,64
1248736,298,64
1248746,295,64
1248756,322,64
1248766,290,64
1248777,316,64
1248787,315,64
1248797,295,64
1248808,328,64
1248816,300,64
1248828,310,64
1248838,325,64
1248848,295,64
1248859,327,64
1248869,311,64
1248879,305,64
1248890,332,64
1248899,298,64
1248911,322,64
1248920,321,64
1248931,301,64
1248941,334,64
1248950,308,64
1248960,315,64
1248972,332,64
1248982,301,64
1248993,331,64
1249003,317,64
1249013,310,64
1249023,339,64
1249033,305,64
1249044,328,64
1249053,328,64
1249064,306,64
1249074,340,64
1249084,314,64
1249095,321,64
1249106,339,64
1249114,306,64
1249126,339,64
1249137,333,64
1249147,325,64
1249157,350,64
1249166,316,64
1249177,334,64
1249187,331,64
1249197,307,64
1249208,338,64
1249218,313,64
1249228,317,64
1249238,335,64
1249249,300,64
1249260,298,64
1249268,284,64
1249280,454,64
1249291,651,63
1249299,652,63
1249311,440,63
1249320,274,63
1249330,314,63
1249341,316,63
1249351,295,63
1249362,301,63
1249372,322,63
1249382,293,63
1249393,325,63
1249402,318,63
1249412,308,63
1249422,341,63
1249433,313,63
1249444,332,63
1249455,344,63
1249464,321,63
1249475,358,63
1249485,341,63
1249494,348,63
1249506,373,63
1249515,344,63
1249525,374,63
1249536,367,63
1249547,353,63
1249557,375,63
1249567,327,63
1249577,325,63
1249586,320,63
1249598,286,63
1249606,317,63
1249619,294,63
1249629,294,63
1249639,317,63
1249650,286,63
1249660,313,63
1249669,308,63
1249681,293,63
1249690,325,63
1249700,295,63
1249710,312,63
1249721,320,63
1249731,291,63
1249742,326,63
1249752,304,63
1249762,304,63
1249772,326,63
1249783,292,63
1249793,320,63
1249802,314,63
1249814,297,63
1249824,330,63
1249835,300,63
1249845,313,63
1249854,325,63
1249865,297,63
1249874,330,63
1249882,312,63
1249896,309,63
1249905,335,63
1249915,301,63
1249926,327,63
1249936,322,63
1249947,306,63
1249957,338,63
1249967,310,63
1249978,322,63
1249987,333,63
1249999,304,63
1250009,335,63
1250018,321,63
1250028,319,63
1250040,352,63
1250049,315,63
1250060,337,63
1250070,332,63
1250081,309,63
1250091,341,63
1250101,310,63
1250111,318,63
1250122,333,63
1250132,301,63
1250142,331,63
1250151,278,63
1250161,281,63
1250172,501,63
1250183,651,63
1250193,652,63
1250203,408,63
1250214,257,63
1250224,348,63
1250234,289,63
1250244,303,63
1250254,319,63
1250266,291,63
1250276,325,63
1250285,313,63
1250296,308,63
1250306,337,63
1250317,307,63
1250325,333,63
1250338,336,63
1250348,316,63
1250355,355,63
1250368,332,63
1250379,344,63
1250388,366,63
1250398,340,63
1250409,373,63
1250420,362,63
1250430,356,63
1250440,385,63
1250450,341,63
1250460,344,63
1250471,328,63
1250480,294,63
1250490,322,63
1250502,293,63
1250512,297,63
1250522,316,63
1250533,285,63
1250542,315,63
1250552,304,63
1250563,295,63
1250572,322,63
1250582,293,63
1250594,314,63
1250604,318,63
1250614,294,63
1250625,328,63
1250635,302,63
1250645,308,63
1250655,327,63
1250664,294,63
1250675,323,63
1250687,312,63
1250695,302,63
1250705,330,63
1250717,297,63
1250727,316,63
1250738,321,63
1250747,297,63
1250758,329,63
1250768,307,63
1250778,310,63
1250789,331,63
1250799,297,63
1250810,327,63
1250818,317,63
1250826,304,63
1250841,336,63
1250848,305,63
1250861,321,63
1250872,329,63
1250881,302,63
1250891,333,63
1250902,314,63
1250912,314,63
1250922,347,63
1250932,311,63
1250943,339,63
1250953,328,63
1250962,310,63
1250973,339,63
1250983,308,63
1250993,322,63
1251005,330,63
1251014,302,63
1251024,325,63
1251036,268,63
1251045,321,63
1251056,570,63
1251066,652,63
1251076,651,63
1251086,290,63
1251095,291,63
1251107,334,63
1251117,284,63
1251127,303,63
1251139,314,63
1251148,288,63
1251158,323,63
1251168,306,63
1251178,307,63
1251189,334,63
1251200,304,63
1251209,332,63
1251220,331,63
1251229,316,63
1251239,353,63
1251248,329,63
1251261,347,63
1251271,364,63
1251280,339,63
1251290,373,63
1251302,359,63
1251312,357,63
1251322,380,63
1251331,332,63
1251343,339,63
1251353,318,63
1251363,291,63
1251374,318,63
1251385,289,63
1251395,299,63
1251405,312,63
1251415,284,63
1251426,316,63
1251436,301,63
1251446,296,63
1251456,323,63
1251465,292,63
1251476,316,63
1251487,314,63
1251497,295,63
1251508,327,63
1251516,299,63
1251529,310,63
1251538,324,63
1251549,294,63
1251558,325,63
1251568,308,63
1251578,301,63
1251590,327,63
1251599,295,63
1251610,318,63
1251621,319,63
1251628,296,63
1251640,330,63
1251651,304,63
1251662,312,63
1251672,330,63
1251682,300,63
1251692,331,63
1251702,318,63
1251713,309,63
1251723,336,63
1251732,305,63
1251743,328,63
1251754,330,63
1251763,306,63
1251774,340,63
1251785,315,63
1251795,321,63
1251805,349,63
1251816,315,63
1251825,344,63
1251834,327,63
1251845,314,63
1251857,343,63
1251866,310,63
1251877,328,63
1251888,331,63
1251898,306,63
1251907,324,63
1251917,264,63
1251928,362,63
1251939,611,64
1251948,652,64
1251959,640,64
1251969,264,64
1251978,312,64
1251990,331,64
1252000,286,64
1252009,308,64
1252019,315,64
1252030,293,64
1252041,330,64
1252052,309,64
1252062,315,64
1252072,338,64
1252082,308,64
1252092,340,64
1252103,334,64
1252112,323,64
1252120,357,64
1252133,332,64
1252144,353,64
1252154,365,64
1252164,344,64
1252172,380,64
1252185,360,64
1252194,365,64
1252205,380,64
1252216,332,64
1252226,341,64
1252235,318,64
1252246,295,64
1252256,323,64
1252265,290,64
1252274,306,64
1252286,313,64
1252295,288,64
1252308,322,64
1252318,301,64
1252329,302,64
1252339,325,64
1252349,291,64
1252358,321,64
1252370,313,64
1252380,299,64
1252389,331,64
1252401,301,64
1252410,314,64
1252421,324,64
1252431,295,64
1252442,327,64
1252452,307,64
1252462,305,64
1252472,329,64
1252482,297,64
1252492,322,64
1252503,317,64
1252513,302,64
1252521,334,64
1252534,305,64
1252543,319,64
1252555,330,64
1252565,302,64
1252574,334,64
1252586,314,64
1252595,312,64
1252605,337,64
1252615,302,64
1252626,331,64
1252637,328,64
1252646,308,64
1252657,338,64
1252667,314,64
1252677,325,64
1252688,348,64
1252698,315,64
1252707,347,64
1252719,325,64
1252728,317,64
1252739,342,64
1252749,308,64
1252759,331,64
1252771,328,64
1252780,307,64
1252791,334,64
1252801,266,64
1252811,309,64
1252821,541,65
1252832,652,65
1252843,652,65
1252853,337,65
1252862,283,65
1252872,343,65
1252882,284,65
1252893,311,65
1252903,311,65
1252914,294,65
1252924,329,65
1252935,303,65
1252945,315,65
1252955,333,65
1252965,305,65
1252974,341,65
1252985,328,65
1252995,322,65
1253006,353,65
1253016,325,65
1253026,353,65
1253037,359,65
1253048,342,65
1253058,378,65
1253068,355,65
1253077,365,65
1253089,379,65
1253099,337,65
1253108,346,65
1253120,317,65
1253129,298,65
1253139,322,65
1253149,287,65
1253159,306,65
1253171,309,65
1253181,286,65
1253189,320,65
1253201,296,65
1253211,304,65
1253222,322,65
1253232,292,65
1253241,322,65
1253252,310,65
1253262,300,65
1253273,329,65
1253283,296,65
1253293,316,65
1253304,320,65
1253313,295,65
1253324,328,65
1253334,303,65
1253344,306,65
1253356,326,65
1253366,295,65
1253375,323,65
1253387,313,65
1253395,303,65
1253406,332,65
1253416,301,65
1253427,320,65
1253438,325,65
1253448,301,65
1253458,333,65
1253468,311,65
1253477,314,65
1253487,333,65
1253498,301,65
1253508,330,65
1253520,322,65
1253528,309,65
1253541,341,65
1253550,309,65
1253560,328,65
1253571,340,65
1253581,319,65
1253591,349,65
1253601,326,65
1253611,324,65
1253623,340,65
1253632,307,65
1253642,334,65
1253652,324,65
1253662,308,65
1253673,338,65
1253683,308,65
1253694,299,65
1253705,281,65
1253714,381,65
1253725,644,65
1253735,653,65
1253745,585,65
1253756,269,65
1253766,314,65
1253774,316,65
1253787,304,65
1253796,290,65
1253807,324,65
1253818,297,65
1253827,313,65
1253837,325,65
1253847,300,65
1253858,336,65
1253869,319,65
1253879,319,65
1253889,345,65
1253900,317,65
1253910,347,65
1253920,346,65
1253930,335,65
1253941,372,65
1253950,348,65
1253961,364,65
1253971,377,65
1253980,351,65
1253992,376,65
1254002,341,65
1254011,320,65
1254021,330,65
1254033,289,65
1254042,310,65
1254054,306,65
1254062,286,65
1254074,319,65
1254084,293,65
1254093,304,65
1254105,317,65
1254115,290,65
1254126,322,65
1254136,305,65
1254146,300,65
1254156,327,65
1254163,295,65
1254175,317,65
1254184,316,65
1254197,295,65
1254208,327,65
1254217,300,65
1254228,307,65
1254238,323,65
1254248,293,65
1254259,324,65
1254269,309,65
1254278,301,65
1254288,330,65
1254299,297,65
1254308,320,65
1254320,320,65
1254330,298,65
1254341,332,65
1254350,307,65
1254360,314,65
1254372,330,65
1254382,299,65
1254392,330,65
1254402,317,65
1254411,309,65
1254420,337,65
1254432,305,65
1254441,327,65
1254453,330,65
1254464,316,65
1254473,349,65
1254481,320,65
1254495,325,65
1254504,340,65
1254514,306,65
1254522,335,65
1254536,320,65
1254546,308,65
1254557,336,65
1254567,304,65
1254577,322,65
1254587,304,65
1254598,249,65
1254607,402,65
1254617,613,66
1254628,653,66
1254637,623,66
1254648,236,66
1254660,339,66
1254670,307,66
1254680,288,66
1254689,321,66
1254700,291,66
1254710,312,66
1254719,320,66
1254730,297,66
1254742,333,66
1254752,313,66
1254762,320,66
1254771,341,66
1254781,313,66
1254793,346,66
1254802,339,66
1254813,334,66
1254823,368,66
1254833,342,66
1254843,363,66
1254854,373,66
1254864,351,66
1254874,386,66
1254883,356,66
1254893,341,66
1254905,343,66
1254915,297,66
1254925,315,66
1254936,304,66
1254946,288,66
1254955,319,66
1254966,289,66
1254976,306,66
1254988,314,66
1254998,288,66
1255008,323,66
1255019,303,66
1255029,304,66
1255038,326,66
1255050,294,66
1255060,322,66
1255070,314,66
1255080,298,66
1255089,329,66
1255100,300,66
1255110,313,66
1255121,323,66
1255131,296,66
1255141,329,66
1255151,308,66
1255162,306,66
1255172,330,66
1255182,297,66
1255193,324,66
1255203,319,66
1255214,302,66
1255224,333,66
1255234,304,66
1255243,318,66
1255254,330,66
1255264,303,66
1255274,333,66
1255284,315,66
1255294,313,66
1255306,337,66
1255316,304,66
1255327,330,66
1255337,326,66
1255347,310,66
1255358,352,66
1255366,323,66
1255378,331,66
1255387,343,66
1255398,313,66
1255408,339,66
1255417,320,66
1255429,313,66
1255438,339,66
1255449,305,66
1255459,328,66
1255470,324,66
1255481,293,66
1255491,288,66
1255501,329,66
1255511,568,66
1255520,653,66
1255532,646,66
1255540,278,66
1255551,311,66
1255561,307,66
1255572,313,66
1255583,288,66
1255593,311,66
1255603,313,66
1255614,296,66
1255623,331,66
1255633,309,66
1255644,318,66
1255655,334,66
1255665,310,66
1255674,343,66
1255684,331,66
1255696,329,66
1255705,363,66
1255716,337,66
1255727,364,66
1255737,369,66
1255747,352,66
1255758,387,66
1255768,367,66
1255778,367,66
1255788,367,66
1255799,316,66
1255809,326,66
1255819,302,66
1255830,288,66
1255839,314,66
1255850,284,66
1255860,303,66
1255870,309,66
1255880,284,66
1255891,317,66
1255901,297,66
1255912,300,66
1255922,319,66
1255932,291,66
1255943,319,66
1255953,309,66
1255962,299,66
1255973,325,66
1255983,294,66
1255993,310,66
1256004,316,66
1256014,293,66
1256025,327,66
1256035,304,66
1256045,305,66
1256056,324,66
1256066,295,66
1256076,322,66
1256085,312,66
1256096,302,66
1256105,330,66
1256116,302,66
1256126,318,66
1256136,323,66
1256147,299,66
1256158,332,66
1256168,314,66
1256179,313,66
1256189,332,66
1256199,303,66
1256209,330,66
1256220,322,66
1256229,315,66
1256237,346,66
1256249,317,66
1256259,331,66
1256270,339,66
1256281,308,66
1256291,336,66
1256301,316,66
1256311,316,66
1256322,336,66
1256332,304,66
1256341,329,66
1256352,318,66
1256364,270,66
1256372,316,66
1256382,483,66
1256394,650,67
1256403,651,67
1256415,311,67
1256425,297,67
1256435,325,67
1256445,295,67
1256456,326,67
1256465,296,67
1256476,322,67
1256485,321,67
1256496,307,67
1256507,340,67
1256516,315,67
1256526,331,67
1256537,343,67
1256547,321,67
1256558,356,67
1256569,341,67
1256579,345,67
1256587,375,67
1256600,347,67
1256608,378,67
1256616,381,67
1256630,367,67
1256639,400,67
1256650,367,67
1256660,365,67
1256671,352,67
1256682,306,67
1256692,323,67
1256702,300,67
1256713,295,67
1256722,317,67
1256731,284,67
1256742,309,67
1256752,308,67
1256763,289,67
1256773,324,67
1256784,296,67
1256794,308,67
1256805,323,67
1256815,294,67
1256825,326,67
1256836,309,67
1256846,305,67
1256856,330,67
1256866,297,67
1256877,320,67
1256886,315,67
1256897,298,67
1256908,331,67
1256917,302,67
1256928,313,67
1256937,327,67
1256948,297,67
1256958,330,67
1256968,313,67
1256979,306,67
1256990,335,67
1257000,304,67
1257010,327,67
1257019,325,67
1257031,305,67
1257039,337,67
1257050,312,67
1257062,319,67
1257071,335,67
1257081,304,67
1257093,337,67
1257101,321,67
1257112,319,67
1257122,353,67
1257131,314,67
1257143,335,67
1257153,336,67
1257164,309,67
1257174,340,67
1257183,311,67
1257195,315,67
1257204,332,67
1257214,300,67
1257225,330,67
1257235,313,67
1257246,266,67
1257256,290,67
1257266,436,67
1257277,651,67
1257286,653,67
1257298,457,67
1257307,278,67
1257317,318,67
1257329,292,67
1257337,312,67
1257348,281,67
1257359,314,67
1257368,305,67
1257380,297,67
1257390,330,67
1257400,300,67
1257411,322,67
1257420,329,67
1257430,306,67
1257440,343,67
1257450,322,67
1257462,331,67
1257472,356,67
1257482,328,67
1257492,364,67
1257502,359,67
1257513,349,67
1257523,383,67
1257532,352,67
1257544,362,67
1257554,350,67
1257564,306,67
1257575,325,67
1257584,297,67
1257594,295,67
1257604,315,67
1257614,284,67
1257624,312,67
1257635,303,67
1257646,289,67
1257656,322,67
1257667,291,67
1257677,308,67
1257687,317,67
1257697,290,67
1257708,324,67
1257715,303,67
1257728,302,67
1257738,327,67
1257748,293,67
1257758,321,67
1257770,313,67
1257780,298,67
1257790,330,67
1257799,298,67
1257811,315,67
1257820,323,67
1257832,296,67
1257842,329,67
1257851,308,67
1257861,308,67
1257871,331,67
1257882,298,67
1257893,326,67
1257903,321,67
1257913,304,67
1257924,334,67
1257934,306,67
1257944,319,67
1257954,333,67
1257965,302,67
1257975,337,67
1257984,316,67
1257995,314,67
1258005,340,67
1258016,309,67
1258026,345,67
1258036,337,67
1258047,315,67
1258057,350,67
1258067,320,67
1258077,326,67
1258086,337,67
1258098,306,67
1258109,336,67
1258119,318,67
1258129,313,67
1258139,340,67
1258149,295,67
1258159,275,67
1258170,333,67
1258181,545,67
1258190,653,67
1258199,652,67
1258212,324,67
1258220,322,67
1258232,303,67
1258242,314,67
1258251,300,67
1258262,295,67
1258273,324,67
1258282,296,67
1258292,322,67
1258303,323,67
1258314,303,67
1258324,340,67
1258335,316,67
1258345,327,67
1258353,346,67
1258365,319,67
1258375,355,67
1258384,344,67
1258395,344,67
1258405,378,67
1258415,348,67
1258426,373,67
1258436,377,67
1258447,353,67
1258457,372,67
1258467,328,67
1258477,317,67
1258488,324,67
1258498,287,67
1258509,317,67
1258519,302,67
1258529,293,67
1258540,322,67
1258549,291,67
1258559,313,67
1258569,316,67
1258581,293,67
1258590,326,67
1258600,301,67
1258611,307,67
1258622,326,67
1258632,295,67
1258642,325,67
1258652,312,67
1258662,300,67
1258672,330,67
1258684,297,67
1258694,317,67
1258703,320,67
1258714,296,67
1258724,331,67
1258734,305,67
1258745,310,67
1258754,330,67
1258765,298,67
1258775,329,67
1258785,316,67
1258796,304,67
1258805,334,67
1258817,303,67
1258827,322,67
1258836,329,67
1258847,305,67
1258858,338,67
1258868,313,67
1258878,318,67
1258888,339,67
1258899,305,67
1258909,334,67
1258918,325,67
1258930,313,67
1258939,348,67
1258949,325,67
1258959,335,67
1258970,341,67
1258981,312,67
1258991,345,67
1259001,320,67
1259011,319,67
1259022,337,67
1259032,302,67
1259042,330,67
1259053,323,67
1259063,306,67
1259072,334,67
1259082,262,67
1259094,289,67
1259104,498,67
1259114,651,67
1259123,653,67
1259134,423,67
1259146,271,67
1259156,346,67
1259165,283,67
1259176,312,67
1259186,307,67
1259197,292,67
1259207,326,67
1259217,300,67
1259228,317,67
1259236,329,67
1259248,304,67
1259257,338,67
1259268,320,67
1259278,324,67
1259288,352,67
1259299,321,67
1259310,352,67
1259318,352,67
1259328,342,67
1259340,378,67
1259349,352,67
1259360,369,67
1259371,380,67
1259381,343,67
1259391,354,67
1259401,317,67
1259412,300,67
1259422,318,67
1259433,283,67
1259443,305,67
1259453,302,67
1259461,285,67
1259474,318,67
1259484,291,67
1259495,301,67
1259504,316,67
1259515,291,67
1259524,319,67
1259534,306,67
1259544,299,67
1259555,325,67
1259565,294,67
1259576,319,67
1259587,315,67
1259597,296,67
1259606,326,67
1259617,299,67
1259628,311,67
1259637,324,67
1259648,294,67
1259657,325,67
1259668,310,67
1259678,304,67
1259688,330,67
1259699,297,67
1259709,319,67
1259719,322,67
1259731,301,67
1259741,335,67
1259749,309,67
1259761,316,67
1259772,330,67
1259782,302,67
1259791,331,67
1259801,320,67
1259813,310,67
1259822,340,67
1259833,310,67
1259843,330,67
1259854,339,67
1259864,321,67
1259874,344,67
1259884,321,67
1259894,327,67
1259905,346,67
1259915,311,67
1259924,335,67
1259935,324,67
1259945,312,67
1259955,337,67
1259966,308,67
1259977,329,67
1259986,322,67
1259998,263,67
1260007,332,67
1260016,527,66
1260027,651,66
1260038,649,66
1260049,269,66
1260059,317,66
1260068,328,66
1260079,297,66
1260089,331,66
1260099,302,66
1260109,322,66
1260120,329,66
1260131,308,66
1260141,342,66
1260151,322,66
1260161,327,66
1260172,350,66
1260182,324,66
1260193,354,66
1260203,348,66
1260211,342,66
1260221,376,66
1260232,352,66
1260242,374,66
1260254,386,66
1260264,363,66
1260274,397,66
1260285,372,66
1260295,358,66
1260305,354,66
1260315,305,66
1260325,320,66
1260336,305,66
1260347,289,66
1260356,316,66
1260366,286,66
1260376,304,66
1260387,312,66
1260398,288,66
1260408,321,66
1260418,301,66
1260429,302,66
1260438,324,66
1260449,294,66
1260460,321,66
1260470,312,66
1260480,298,66
1260490,328,66
1260500,296,66
1260510,312,66
1260520,320,66
1260532,292,66
1260542,326,66
1260552,305,66
1260562,304,66
1260571,326,66
1260583,294,66
1260593,321,66
1260602,314,66
1260613,297,66
1260624,330,66
1260632,301,66
1260643,316,66
1260653,325,66
1260665,297,66
1260674,330,66
1260684,311,66
1260695,311,66
1260704,334,66
1260716,302,66
1260726,328,66
1260735,324,66
1260745,307,66
1260757,341,66
1260766,323,66
1260776,331,66
1260787,340,66
1260798,312,66
1260807,343,66
1260817,322,66
1260829,315,66
1260838,341,66
1260849,304,66
1260858,329,66
1260870,324,66
1260880,304,66
1260891,334,66
1260899,266,66
1260909,280,66
1260921,480,66
1260932,650,66
1260941,653,66
1260951,444,66
1260961,257,66
1260972,348,66
1260982,282,66
1260991,309,66
1261002,306,66
1261014,290,66
1261024,326,66
1261034,298,66
1261044,314,66
1261054,329,66
1261065,302,66
1261075,337,66
1261085,322,66
1261095,320,66
1261105,350,66
1261116,321,66
1261126,348,66
1261136,352,66
1261147,338,66
1261156,375,66
1261167,350,66
1261178,362,66
1261188,380,66
1261199,340,66
1261209,354,66
1261218,321,66
1261229,300,66
1261237,320,66
1261249,283,66
1261260,305,66
1261270,305,66
1261281,284,66
1261291,319,66
1261300,291,66
1261311,302,66
1261321,319,66
1261332,288,66
1261341,321,66
1261351,306,66
1261363,299,66
1261372,327,66
1261383,294,66
1261393,317,66
1261404,317,66
1261414,295,66
1261424,327,66
1261433,299,66
1261444,308,66
1261454,324,66
1261465,293,66
1261475,325,66
1261485,312,66
1261497,303,66
1261505,331,66
1261516,298,66
1261526,319,66
1261538,324,66
1261548,299,66
1261557,335,66
1261567,310,66
1261578,315,66
1261587,334,66
1261599,301,66
1261608,333,66
1261619,320,66
1261630,311,66
1261638,340,66
1261650,308,66
1261660,327,66
1261670,337,66
1261681,321,66
1261691,350,66
1261700,320,66
1261710,327,66
1261722,344,66
1261732,308,66
1261742,337,66
1261753,322,66
1261763,308,66
1261773,339,66
1261783,304,66
1261791,323,66
1261803,308,66
1261814,246,66
1261824,384,66
1261833,595,66
1261845,653,66
1261854,649,66
1261866,258,66
1261876,334,66
1261886,311,66
1261896,284,66
1261906,319,66
1261916,288,66
1261926,308,66
1261937,317,66
1261948,293,66
1261958,331,66
1261969,311,66
1261979,316,66
1261988,339,66
1261999,307,66
1262009,342,66
1262019,336,66
1262030,325,66
1262037,363,66
1262049,336,66
1262059,358,66
1262070,369,66
1262081,345,66
1262091,380,66
1262102,357,66
1262112,344,66
1262122,348,66
1262133,299,66
1262142,317,66
1262153,306,66
1262163,287,66
1262174,319,66
1262184,288,66
1262192,304,66
1262205,314,66
1262215,288,66
1262225,322,66
1262235,302,66
1262246,302,66
1262255,327,66
1262266,295,66
1262277,319,66
1262285,314,66
1262297,298,66
1262307,331,66
1262317,301,66
1262328,315,66
1262338,324,66
1262347,294,66
1262359,329,66
1262369,310,66
1262378,308,66
1262388,332,66
1262398,299,66
1262408,325,66
1262420,320,66
1262430,302,66
1262441,335,66
1262450,306,66
1262461,319,66
1262471,332,66
1262480,302,66
1262492,337,66
1262502,319,66
1262512,316,66
1262521,342,66
1262533,309,66
1262543,334,66
1262552,330,66
1262563,313,66
1262574,348,66
1262584,330,66
1262594,336,66
1262604,346,66
1262615,316,66
1262625,348,66
1262634,327,66
1262646,320,66
1262657,344,66
1262666,309,66
1262676,332,66
1262686,330,66
1262696,309,66
1262707,337,66
1262718,266,66
1262728,298,66
1262738,521,66
1262749,652,66
1262759,653,66
1262768,412,66
1262780,274,66
1262790,348,66
1262798,285,66
1262810,311,66
1262818,313,66
1262831,291,66
1262839,329,66
1262850,305,66
1262862,315,66
1262872,332,66
1262881,303,66
1262891,338,66
1262903,323,66
1262912,320,66
1262923,351,66
1262934,322,66
1262944,350,66
1262952,356,66
1262964,339,66
1262974,377,66
1262984,352,66
1262994,365,66
1263004,382,66
1263016,341,66
1263026,355,66
1263036,324,66
1263046,303,66
1263056,324,66
1263067,288,66
1263077,309,66
1263086,311,66
1263097,289,66
1263106,323,66
1263117,298,66
1263128,304,66
1263138,323,66
1263148,292,66
1263158,323,66
1263169,310,66
1263180,301,66
1263190,330,66
1263200,295,66
1263211,318,66
1263221,319,66
1263231,295,66
1263240,330,66
1263251,303,66
1263262,308,66
1263271,328,66
1263281,294,66
1263291,325,66
1263303,313,66
1263313,301,66
1263323,333,66
1263332,300,66
1263344,319,66
1263353,324,66
1263365,298,66
1263375,334,66
1263385,308,66
1263395,313,66
1263404,334,66
1263414,302,66
1263425,331,66
1263435,321,66
1263446,309,66
1263457,339,66
1263465,307,66
1263477,327,66
1263486,332,66
1263498,316,66
1263507,353,66
1263517,322,66
1263528,325,66
1263537,347,66
1263549,312,66
1263559,336,66
1263569,324,66
1263580,311,66
1263590,340,66
1263600,307,66
1263610,324,66
1263622,330,66
1263631,294,66
1263641,285,66
1263652,304,66
1263663,528,66
1263671,652,66
1263682,652,66
1263693,352,66
1263703,299,66
1263714,311,66
1263724,317,66
1263734,289,66
1263744,307,66
1263754,316,66
1263765,292,66
1263775,330,66
1263784,310,66
1263794,312,66
1263805,338,66
1263816,307,66
1263826,338,66
1263836,334,66
1263847,320,66
1263857,357,66
1263868,332,66
1263878,352,66
1263888,365,66
1263898,342,66
1263908,376,66
1263918,358,66
1263929,358,66
1263939,374,66
1263948,324,66
1263960,331,66
1263969,312,66
1263981,289,66
1263991,318,66
1264000,288,66
1264010,301,66
1264021,313,66
1264032,286,66
1264041,318,66
1264051,302,66
1264063,300,66
1264072,324,66
1264083,292,66
1264094,316,66
1264103,314,66
1264114,296,66
1264123,329,66
1264134,301,66
1264144,312,66
1264155,323,66
1264165,293,66
1264176,323,66
1264186,307,66
1264196,303,66
1264206,326,66
1264217,294,66
1264227,318,66
1264237,316,66
1264246,297,66
1264256,330,66
1264267,303,66
1264278,315,66
1264288,328,66
1264298,299,66
1264309,331,66
1264319,313,66
1264329,310,66
1264339,338,66
1264349,305,66
1264361,327,66
1264369,326,66
1264381,307,66
1264389,340,66
1264402,324,66
1264411,333,66
1264421,342,66
1264431,313,66
1264441,342,66
1264453,326,66
1264463,315,66
1264474,339,66
1264483,306,66
1264493,327,66
1264504,327,66
1264514,306,66
1264523,338,66
1264533,295,66
1264545,270,66
1264555,382,66
1264565,579,66
1264576,652,66
1264585,601,66
1264595,235,66
1264607,344,66
1264617,300,66
1264627,310,66
1264636,318,66
1264647,297,66
1264658,331,66
1264668,308,66
1264679,318,66
1264689,337,66
1264699,310,66
1264709,342,66
1264719,330,66
1264729,325,66
1264739,354,66
1264751,329,66
1264760,354,66
1264769,362,66
1264780,345,66
1264792,382,66
1264801,361,66
1264812,370,66
1264821,390,66
1264832,354,66
1264842,365,66
1264851,335,66
1264862,309,66
1264874,324,66
1264882,288,66
1264894,302,66
1264904,307,66
1264914,285,66
1264925,317,66
1264934,296,66
1264945,301,66
1264955,321,66
1264965,292,66
1264976,321,66
1264987,312,66
1264997,302,66
1265007,331,66
1265017,301,66
1265027,318,66
1265037,320,66
1265047,298,66
1265057,330,66
1265068,306,66
1265078,310,66
1265088,328,66
1265098,297,66
1265110,325,66
1265120,314,66
1265130,304,66
1265140,333,66
1265150,300,66
1265160,321,66
1265172,325,66
1265181,303,66
1265192,333,66
1265201,311,66
1265212,316,66
1265222,332,66
1265233,303,66
1265243,334,66
1265253,322,66
1265262,319,66
1265274,350,66
1265284,314,66
1265294,331,66
1265305,340,66
1265314,311,66
1265325,340,66
1265334,318,66
1265345,318,66
1265356,334,66
1265365,303,66
1265377,330,66
1265387,321,66
1265396,275,66
1265408,304,66
1265416,451,66
1265427,649,66
1265436,652,66
1265448,372,66
1265458,281,66
1265468,323,66
1265478,298,66
1265490,321,66
1265499,292,66
1265510,321,66
1265520,315,66
1265528,304,66
1265541,337,66
1265551,309,66
1265561,327,66
1265572,337,66
1265581,311,66
1265591,348,66
1265602,331,66
1265613,337,66
1265623,363,66
1265633,336,66
1265643,369,66
1265653,365,66
1265663,354,66
1265674,388,66
1265685,359,66
1265695,363,66
1265705,355,66
1265716,309,66
1265726,326,66
1265735,296,66
1265745,293,66
1265755,315,66
1265766,281,66
1265777,309,66
1265786,304,66
1265797,289,66
1265808,323,66
1265818,293,66
1265827,307,66
1265837,319,66
1265847,292,66
1265859,324,66
1265869,305,66
1265879,305,66
1265887,328,66
1265899,295,66
1265911,321,66
1265919,315,66
1265930,297,66
1265940,329,66
1265951,299,66
1265961,312,66
1265972,323,66
1265982,295,66
1265993,328,66
1266003,309,66
1266013,306,66
1266023,331,66
1266032,299,66
1266044,325,66
1266054,321,66
1266063,303,66
1266075,336,66
1266085,304,66
1266095,319,66
1266105,330,66
1266116,309,66
1266126,345,66
1266136,324,66
1266145,315,66
1266155,338,66
1266166,304,66
1266177,330,66
1266187,325,66
1266197,304,66
1266208,337,66
1266218,304,66
1266228,279,66
1266238,297,66
1266248,455,66
1266258,652,66
1266267,653,66
1266280,431,66
1266290,289,66
1266300,310,66
1266310,305,66
1266320,304,66
1266331,286,66
1266342,322,66
1266351,294,66
1266362,308,66
1266372,324,66
1266382,295,66
1266392,331,66
1266402,317,66
1266412,315,66
1266422,345,66
1266433,314,66
1266444,342,66
1266454,346,66
1266464,330,66
1266475,368,66
1266484,344,66
1266495,356,66
1266505,373,66
1266515,345,66
1266526,368,66
1266535,336,66
1266547,313,66
1266557,329,66
1266567,289,66
1266578,309,66
1266587,308,66
1266598,286,66
1266608,321,66
1266619,293,66
1266629,304,66
1266639,320,66
1266648,288,66
1266658,321,66
1266670,307,66
1266679,299,66
1266690,328,66
1266700,293,66
1266711,315,66
1266721,315,66
1266731,293,66
1266741,328,66
1266752,300,66
1266763,308,66
1266771,325,66
1266783,292,66
1266793,325,66
1266804,310,66
1266813,301,66
1266823,331,66
1266833,298,66
1266844,319,66
1266854,322,66
1266864,297,66
1266874,334,66
1266885,308,66
1266895,312,66
1266905,330,66
1266916,300,66
1266927,331,66
1266937,328,66
1266947,317,66
1266958,344,66
1266968,308,66
1266978,327,66
1266987,328,66
1266998,303,66
1267009,338,66
1267018,310,66
1267028,315,66
1267039,328,66
1267049,254,66
1267059,315,66
1267071,516,67
1267079,652,67
1267091,653,67
1267100,357,67
1267112,295,67
1267121,333,67
1267131,280,67
1267141,317,67
1267151,292,67
1267163,301,67
1267173,322,67
1267184,293,67
1267193,327,67
1267200,317,67
1267214,309,67
1267224,342,67
1267234,310,67
1267245,333,67
1267255,342,67
1267264,322,67
1267276,361,67
1267286,340,67
1267296,350,67
1267306,374,67
1267317,346,67
1267327,377,67
1267337,367,67
1267345,343,67
1267358,358,67
1267367,308,67
1267378,315,67
1267389,316,67
1267398,287,67
1267408,322,67
1267418,297,67
1267429,300,67
1267440,324,67
1267450,290,67
1267460,321,67
1267470,312,67
1267481,298,67
1267492,331,67
1267502,300,67
1267512,318,67
1267522,323,67
1267531,297,67
1267543,330,67
1267552,306,67
1267562,308,67
1267574,329,67
1267583,294,67
1267594,323,67
1267603,314,67
1267615,300,67
1267625,331,67
1267634,299,67
1267645,316,67
1267656,325,67
1267665,299,67
1267675,334,67
1267685,309,67
1267696,311,67
1267707,335,67
1267717,301,67
1267727,330,67
1267736,322,67
1267748,308,67
1267758,339,67
1267767,312,67
1267779,335,67
1267787,342,67
1267800,311,67
1267810,341,67
1267820,319,67
1267829,316,67
1267841,340,67
1267849,305,67
1267861,332,67
1267871,324,67
1267881,289,67
1267892,287,67
1267901,362,67
1267912,610,68
1267921,653,68
1267933,630,68
1267943,278,68
1267952,322,68
1267962,302,68
1267973,317,68
1267984,286,68
1267994,313,68
1268003,311,68
1268015,295,68
1268025,330,68
1268035,303,68
1268046,320,68
1268056,334,68
1268065,308,68
1268075,342,68
1268087,326,68
1268096,328,68
1268105,358,68
1268118,329,68
1268128,360,68
1268138,360,68
1268148,345,68
1268159,380,68
1268169,356,68
1268178,365,68
1268188,362,68
1268200,314,68
1268206,334,68
1268219,308,68
1268227,298,68
1268241,322,68
1268251,289,68
1268261,314,68
1268271,311,68
1268282,293,68
1268292,327,68
1268302,298,68
1268311,311,68
1268323,326,68
1268332,297,68
1268343,328,68
1268353,309,68
1268362,301,68
1268374,330,68
1268384,295,68
1268394,319,68
1268405,316,68
1268415,296,68
1268425,329,68
1268435,302,68
1268446,310,68
1268456,324,68
1268466,296,68
1268477,325,68
1268487,312,68
1268497,306,68
1268507,331,68
1268517,301,68
1268528,323,68
1268539,325,68
1268548,305,68
1268559,334,68
1268569,308,68
1268578,319,68
1268590,333,68
1268600,300,68
1268610,344,68
1268620,331,68
1268630,321,68
1268641,339,68
1268651,309,68
1268662,330,68
1268671,326,68
1268681,307,68
1268691,339,68
1268703,310,68
1268712,315,68
1268722,292,68
1268732,283,68
1268744,516,68
1268754,651,68
1268764,651,68
1268774,352,68
1268785,267,68
1268795,336,68
1268804,307,68
1268816,292,68
1268823,326,68
1268836,303,68
1268846,312,68
1268856,329,68
1268867,305,68
1268877,337,68
1268886,325,68
1268897,320,68
1268907,351,68
1268918,322,68
1268929,346,68
1268939,352,68
1268947,336,68
1268959,374,68
1268969,354,68
1268979,363,68
1268989,383,68
1268999,359,68
1269011,386,68
1269021,363,68
1269031,334,68
1269042,342,68
1269051,299,68
1269062,312,68
1269073,311,68
1269082,288,68
1269092,319,68
1269103,297,68
1269113,304,68
1269122,320,68
1269133,292,68
1269144,322,68
1269153,311,68
1269163,300,68
1269173,329,68
1269183,301,68
1269195,317,68
1269205,319,68
1269215,298,68
1269225,328,68
1269236,303,68
1269246,308,68
1269256,324,68
1269267,295,68
1269278,323,68
1269288,311,68
1269298,300,68
1269307,330,68
1269318,300,68
1269329,317,68
1269339,323,68
1269349,299,68
1269359,333,68
1269369,309,68
1269379,311,68
1269389,333,68
1269401,297,68
1269410,335,68
1269421,331,68
1269430,318,68
1269442,339,68
1269452,308,68
1269462,325,68
1269473,328,68
1269482,304,68
1269492,334,68
1269504,311,68
1269513,313,68
1269523,300,68
1269534,266,68
1269544,469,68
1269555,650,69
1269563,651,69
1269573,413,69
1269586,246,69
1269594,335,69
1269606,307,69
1269616,286,69
1269626,322,69
1269636,300,69
1269646,306,69
1269657,331,69
1269667,300,69
1269677,332,69
1269688,324,69
1269698,312,69
1269708,347,69
1269719,320,69
1269729,340,69
1269739,351,69
1269748,332,69
1269756,367,69
1269770,351,69
1269780,357,69
1269791,380,69
1269799,353,69
1269811,382,69
1269822,363,69
1269832,328,69
1269840,341,69
1269853,298,69
1269861,307,69
1269873,311,69
1269883,283,69
1269893,315,69
1269903,294,69
1269913,296,69
1269924,320,69
1269934,287,69
1269944,315,69
1269955,310,69
1269965,296,69
1269976,328,69
1269986,297,69
1269995,313,69
1270007,322,69
1270016,294,69
1270025,326,69
1270036,302,69
1270046,303,69
1270057,326,69
1270068,294,69
1270079,320,69
1270089,311,69
1270099,297,69
1270109,330,69
1270119,299,69
1270129,315,69
1270140,323,69
1270150,297,69
1270160,331,69
1270169,310,69
1270180,309,69
1270191,331,69
1270200,299,69
1270211,327,69
1270222,319,69
1270232,314,69
1270242,347,69
1270251,314,69
1270263,326,69
1270273,332,69
1270283,304,69
1270293,337,69
1270301,314,69
1270313,311,69
1270325,335,69
1270334,299,69
1270343,289,69
1270356,280,69
1270364,444,69
1270376,651,70
1270385,652,70
1270395,459,70
1270407,276,70
1270416,311,70
1270426,313,70
1270436,292,70
1270447,292,70
1270458,319,70
1270467,287,70
1270478,316,70
1270489,313,70
1270499,296,70
1270509,332,70
1270519,303,70
1270528,318,70
1270540,333,70
1270549,307,70
1270560,344,70
1270570,331,70
1270580,332,70
1270592,362,70
1270601,332,70
1270612,361,70
1270622,360,70
1270633,344,70
1270642,370,70
1270652,324,70
1270664,320,70
1270674,320,70
1270680,284,70
1270694,314,70
1270704,295,70
1270714,291,70
1270725,318,70
1270734,286,70
1270745,312,70
1270755,308,70
1270766,292,70
1270775,326,70
1270786,297,70
1270797,310,70
1270807,322,70
1270816,293,70
1270826,327,70
1270837,307,70
1270848,302,70
1270858,330,70
1270867,295,70
1270879,320,70
1270889,317,70
1270899,298,70
1270909,332,70
1270919,302,70
1270930,313,70
1270940,329,70
1270951,298,70
1270960,332,70
1270970,315,70
1270980,309,70
1270991,337,70
1271002,303,70
1271011,329,70
1271023,327,70
1271030,307,70
1271043,340,70
1271053,310,70
1271064,322,70
1271074,336,70
1271085,315,70
1271095,348,70
1271105,330,70
1271113,319,70
1271125,346,70
1271135,311,70
1271145,335,70
1271155,332,70
1271165,310,70
1271177,344,70
1271187,311,70
1271197,284,70
1271207,301,70
1271218,458,70
1271226,652,70
1271239,653,70
1271249,466,70
1271258,297,70
1271268,318,70
1271278,310,70
1271290,310,70
1271299,290,70
1271309,327,70
1271320,302,70
1271331,311,70
1271339,330,70
1271351,301,70
1271361,336,70
1271372,322,70
1271381,316,70
1271392,348,70
1271401,318,70
1271412,344,70
1271423,349,70
1271432,331,70
1271443,370,70
1271453,346,70
1271464,358,70
1271475,377,70
1271485,347,70
1271494,371,70
1271504,341,70
1271514,315,70
1271525,331,70
1271536,291,70
1271546,311,70
1271557,311,70
1271566,288,70
1271577,323,70
1271587,298,70
1271597,305,70
1271608,324,70
1271618,291,70
1271627,324,70
1271639,311,70
1271649,301,70
1271659,331,70
1271668,299,70
1271679,320,70
1271689,321,70
1271699,298,70
1271710,331,70
1271720,304,70
1271731,312,70
1271741,328,70
1271750,296,70
1271760,327,70
1271770,315,70
1271783,303,70
1271793,333,70
1271803,300,70
1271812,321,70
1271824,326,70
1271833,299,70
1271843,336,70
1271853,311,70
1271863,315,70
1271873,334,70
1271885,303,70
1271894,334,70
1271906,322,70
1271916,311,70
1271926,341,70
1271936,308,70
1271946,328,70
1271957,334,70
1271967,305,70
1271977,341,70
1271987,315,70
1271998,319,70
1272008,352,70
1272017,316,70
1272028,343,70
1272038,329,70
1272047,312,70
1272060,342,70
1272069,309,70
1272080,328,70
1272090,331,70
1272099,304,70
1272110,327,70
1272121,260,70
1272130,327,70
1272142,576,70
1272152,652,70
1272160,652,70
1272173,315,70
1272181,297,70
1272189,336,70
1272202,282,70
1272210,304,70
1272223,311,70
1272234,287,70
1272244,323,70
1272254,303,70
1272265,309,70
1272274,330,70
1272284,301,70
1272295,330,70
1272304,326,70
1272316,315,70
1272326,351,70
1272337,324,70
1272347,343,70
1272357,357,70
1272367,337,70
1272377,374,70
1272388,355,70
1272397,358,70
1272409,382,70
1272419,340,70
1272429,349,70
1272438,324,70
1272448,300,70
1272459,325,70
1272470,290,70
1272480,304,70
1272490,312,70
1272500,287,70
1272511,318,70
1272521,300,70
1272529,303,70
1272542,320,70
1272552,291,70
1272562,321,70
1272571,313,70
1272583,295,70
1272592,327,70
1272604,298,70
1272613,310,70
1272621,319,70
1272635,294,70
1272644,324,70
1272655,305,70
1272665,305,70
1272675,327,70
1272686,295,70
1272695,319,70
1272705,316,70
1272715,300,70
1272726,331,70
1272737,304,70
1272746,316,70
1272756,326,70
1272766,300,70
1272778,332,70
1272788,311,70
