Timestamp,ECGValue,BPM
224531,324,68
224540,330,68
224551,332,68
224561,319,68
224572,337,68
224582,324,68
224592,299,68
224602,286,68
224612,397,68
224623,626,68
224633,652,68
224643,550,68
224654,269,68
224664,322,68
224675,308,68
224684,306,68
224694,296,68
224704,314,68
224716,304,68
224726,310,68
224735,323,68
224745,308,68
224756,326,68
224767,323,68
224776,319,68
224785,339,68
224798,325,68
224808,340,68
224818,346,68
224827,339,68
224837,362,68
224849,352,68
224858,358,68
224869,370,68
224880,355,68
224890,367,68
224900,349,68
224910,325,68
224921,328,68
224931,302,68
224940,307,68
224951,310,68
224962,294,68
224972,313,68
224981,301,68
224990,302,68
225003,315,68
225013,299,68
225022,315,68
225033,309,68
225044,303,68
225055,321,68
225065,304,68
225075,314,68
225085,317,68
225096,302,68
225105,320,68
225115,306,68
225125,306,68
225136,319,68
225146,300,68
225155,317,68
225167,313,68
225177,304,68
225187,322,68
225196,305,68
225207,314,68
225219,319,68
225229,306,68
225238,326,68
225248,313,68
225259,314,68
225270,328,68
225278,308,68
225291,324,68
225301,321,68
225310,313,68
225321,330,68
225331,314,68
225341,321,68
225350,324,68
225362,307,68
225371,328,68
225382,316,68
225393,326,68
225403,335,68
225413,317,68
225423,330,68
225434,324,68
225444,314,68
225455,331,68
225465,311,68
225474,319,68
225485,323,68
225496,305,68
225504,284,68
225516,291,68
225525,482,68
225536,651,68
225547,652,68
225557,376,68
225567,285,68
225577,312,68
225587,307,68
225598,292,68
225607,300,68
225618,310,68
225628,296,68
225638,317,68
225648,308,68
225658,309,68
225670,325,68
225680,309,68
225690,325,68
225701,327,68
225711,320,68
225722,343,68
225732,332,68
225740,344,68
225752,356,68
225763,342,68
225771,364,68
225783,357,68
225792,356,68
225804,365,68
225813,332,68
225824,327,68
225835,315,68
225844,297,68
225854,312,68
225864,296,68
225876,302,68
225886,310,68
225896,295,68
225905,314,68
225915,305,68
225925,303,68
225937,320,68
225947,301,68
225957,314,68
225968,313,68
225978,301,68
225987,320,68
225998,306,68
226008,311,68
226019,319,68
226030,301,68
226038,318,68
226050,310,68
226059,306,68
226070,322,68
226080,303,68
226088,315,68
226101,318,68
226110,305,68
226121,323,68
226131,310,68
226142,313,68
226152,322,68
226162,305,68
226172,325,68
226184,316,68
226193,309,68
226203,326,68
226213,309,68
226224,321,68
226234,323,68
226245,309,68
226256,329,68
226265,316,68
226275,319,68
226286,327,68
226296,311,68
226307,326,68
226317,321,68
226327,325,68
226337,338,68
226347,317,68
226357,326,68
226368,328,68
226377,311,68
226389,331,68
226399,316,68
226409,318,68
226419,329,68
226430,299,68
226440,282,68
226450,339,68
226459,547,67
226471,652,67
226481,643,67
226491,274,67
226501,322,67
226511,307,67
226522,313,67
226532,304,67
226541,305,67
226553,321,67
226563,306,67
226572,322,67
226584,318,67
226593,313,67
226604,333,67
226614,314,67
226624,328,67
226635,336,67
226644,323,67
226655,351,67
226665,340,67
226675,347,67
226686,363,67
226696,347,67
226705,366,67
226718,363,67
226728,357,67
226738,364,67
226747,325,67
226757,320,67
226769,312,67
226776,289,67
226789,309,67
226799,295,67
226809,294,67
226819,307,67
226830,287,67
226839,304,67
226849,304,67
226861,293,67
226871,316,67
226882,299,67
226891,306,67
226902,310,67
226911,297,67
226921,317,67
226932,300,67
226942,299,67
226953,314,67
226964,296,67
226972,310,67
226983,306,67
226993,298,67
227005,318,67
227015,299,67
227024,306,67
227036,314,67
227045,297,67
227055,317,67
227067,305,67
227076,305,67
227087,322,67
227096,301,67
227108,317,67
227118,315,67
227127,306,67
227138,326,67
227148,308,67
227158,314,67
227169,324,67
227178,304,67
227189,330,67
227199,324,67
227209,321,67
227220,332,67
227230,310,67
227241,325,67
227251,321,67
227261,308,67
227271,327,67
227280,309,67
227292,315,67
227302,302,67
227313,270,67
227322,416,67
227334,603,67
227344,650,67
227354,447,67
227363,235,67
227374,330,67
227385,305,67
227395,293,67
227405,317,67
227414,302,67
227425,311,67
227436,320,67
227446,306,67
227455,328,67
227465,320,67
227476,319,67
227487,341,67
227496,323,67
227506,342,67
227518,347,67
227527,342,67
227538,366,67
227548,354,67
227557,365,67
227569,377,67
227579,360,67
227589,380,67
227600,364,67
227609,343,67
227621,340,67
227630,303,67
227641,308,67
227651,304,67
227662,290,67
227672,309,67
227682,294,67
227693,300,67
227703,310,67
227711,293,67
227722,315,67
227734,306,67
227743,303,67
227754,321,67
227764,303,67
227774,317,67
227784,318,67
227794,303,67
227805,321,67
227815,305,67
227825,307,67
227836,316,67
227846,298,67
227857,316,67
227867,310,67
227877,304,67
227888,323,67
227898,302,67
227907,316,67
227918,319,67
227927,307,67
227938,328,67
227948,312,67
227959,316,67
227969,327,67
227979,309,67
227989,329,67
228001,322,67
228010,316,67
228021,334,67
228031,314,67
228041,324,67
228052,329,67
228060,312,67
228071,336,67
228081,331,67
228092,330,67
228103,341,67
228112,317,67
228123,334,67
228134,326,67
228143,319,67
228154,335,67
228164,315,67
228174,327,67
228185,313,67
228195,262,67
228205,366,67
228215,568,67
228226,652,67
228237,640,67
228247,258,67
228255,328,67
228267,311,67
228278,293,67
228288,313,67
228298,295,67
228307,308,67
228319,316,67
228326,301,67
228340,325,67
228348,313,67
228360,318,67
228369,331,67
228378,314,67
228390,335,67
228400,334,67
228410,330,67
228421,354,67
228431,339,67
228441,352,67
228451,363,67
228462,348,67
228472,371,67
228481,356,67
228491,346,67
228504,345,67
228512,309,67
228524,314,67
228534,306,67
228544,295,67
228555,313,67
228565,295,67
228574,305,67
228583,311,67
228595,295,67
228607,317,67
228616,305,67
228625,305,67
228635,320,67
228646,302,67
228657,316,67
228667,314,67
228677,304,67
228689,324,67
228698,304,67
228708,314,67
228719,319,67
228729,300,67
228740,323,67
228750,312,67
228759,310,67
228771,326,67
228779,306,67
228791,322,67
228801,321,67
228810,309,67
228822,330,67
228831,313,67
228842,322,67
228852,329,67
228862,312,67
228873,331,67
228883,321,67
228893,320,67
228903,335,67
228913,315,67
228924,331,67
228933,331,67
228943,316,67
228955,337,67
228966,319,67
228975,324,67
228985,344,67
228995,324,67
229007,342,67
229017,328,67
229025,322,67
229037,336,67
229048,317,67
229058,328,67
229067,329,67
229078,313,67
229089,328,67
229098,273,67
229108,302,67
229119,508,67
229128,651,67
229140,652,67
229149,352,67
229161,283,67
229171,333,67
229180,290,67
229191,305,67
229201,306,67
229211,295,67
229222,320,67
229233,303,67
229241,311,67
229253,325,67
229262,307,67
229274,329,67
229283,324,67
229294,321,67
229304,342,67
229313,327,67
229325,344,67
229335,349,67
229345,340,67
229356,365,67
229365,354,67
229375,358,67
229387,370,67
229395,344,67
229407,346,67
229417,322,67
229427,303,67
229438,315,67
229448,291,67
229458,302,67
229467,306,67
229475,293,67
229487,314,67
229498,300,67
229510,305,67
229520,318,67
229530,299,67
229539,318,67
229550,308,67
229561,303,67
229569,322,67
229580,303,67
229590,315,67
229602,317,67
229612,301,67
229622,323,67
229633,306,67
229642,308,67
229652,321,67
229663,301,67
229673,318,67
229684,311,67
229694,305,67
229704,322,67
229714,303,67
229725,316,67
229736,321,67
229746,305,67
229756,325,67
229766,311,67
229775,314,67
229786,328,67
229796,307,67
229806,325,67
229816,322,67
229825,312,67
229838,332,67
229849,313,67
229859,318,67
229869,326,67
229879,309,67
229888,341,67
229900,326,67
229909,324,67
229919,333,67
229930,313,67
229939,329,67
229951,323,67
229961,314,67
229971,330,67
229982,311,67
229992,315,67
230000,290,67
230013,284,67
230021,487,67
230033,647,67
230043,650,67
230053,346,67
230064,267,67
230073,329,67
230085,299,67
230095,294,67
230104,318,67
230116,300,67
230124,309,67
230134,318,67
230146,303,67
230156,324,67
230166,316,67
230175,317,67
230186,334,67
230198,317,67
230208,336,67
230217,337,67
230228,332,67
230238,360,67
230248,346,67
230259,356,67
230269,367,67
230280,352,67
230289,372,67
230300,353,67
230310,334,67
230319,330,67
230331,295,67
230340,302,67
230350,297,67
230360,284,67
230371,303,67
230382,289,67
230391,297,67
230402,307,67
230413,291,67
230423,311,67
230433,301,67
230444,301,67
230454,317,67
230465,296,67
230473,311,67
230484,310,67
230494,297,67
230504,318,67
230516,300,67
230525,305,67
230536,314,67
230546,298,67
230556,316,67
230566,307,67
230576,304,67
230587,322,67
230598,303,67
230608,319,67
230618,321,67
230628,308,67
230638,328,67
230649,314,67
230659,320,67
230668,331,67
230678,312,67
230690,332,67
230700,325,67
230710,319,67
230719,336,67
230731,317,67
230740,327,67
230751,331,67
230759,315,67
230772,342,67
230783,330,67
230792,331,67
230802,339,67
230812,315,67
230823,333,67
230833,324,67
230844,316,67
230855,333,67
230865,312,67
230874,324,67
230885,302,67
230895,263,67
230906,402,67
230916,599,67
230925,652,67
230936,555,67
230946,239,67
230956,335,67
230967,304,67
230977,294,67
230988,315,67
230998,297,67
231008,312,67
231018,316,67
231028,305,67
231039,328,67
231049,314,67
231060,319,67
231070,332,67
231080,318,67
231090,339,67
231100,335,67
231110,333,67
231120,356,67
231130,341,67
231139,357,67
231151,365,67
231162,350,67
231172,374,67
231183,358,67
231193,347,67
231202,343,67
231214,309,67
231222,316,67
231235,305,67
231245,295,67
231254,314,67
231265,293,67
231274,305,67
231284,310,67
231293,295,67
231306,317,67
231314,306,67
231326,308,67
231336,321,67
231346,303,67
231357,322,67
231366,317,67
231377,307,67
231388,327,67
231397,306,67
231407,316,67
231416,322,67
231429,304,67
231440,325,67
231449,311,67
231460,313,67
231470,327,67
231480,306,67
231491,322,67
231501,318,67
231511,309,67
231522,329,67
231532,309,67
231541,319,67
231551,324,67
231561,309,67
231574,329,67
231582,317,67
231593,317,67
231603,333,67
231614,312,67
231624,329,67
231634,326,67
231644,315,67
231655,331,67
231664,316,67
231674,322,67
231685,337,67
231696,322,67
231706,341,67
231716,324,67
231726,319,67
231737,334,67
231747,312,67
231757,325,67
231765,322,67
231778,310,67
231788,328,67
231797,284,67
231807,274,67
231819,422,67
231828,616,67
231840,652,67
231850,524,67
231860,249,67
231871,338,67
231881,289,67
231890,303,67
231901,303,67
231910,294,67
231922,317,67
231932,301,67
231942,310,67
231952,321,67
231962,306,67
231973,329,67
231982,320,67
231993,320,67
232003,338,67
232013,322,67
232024,341,67
232034,345,67
232045,337,67
232056,362,67
232064,347,67
232076,355,67
232086,369,67
232096,349,67
232107,355,67
232116,329,67
232127,312,67
232137,320,67
232147,294,67
232157,307,67
232168,306,67
232179,293,67
232189,314,67
232199,297,67
232210,303,67
232216,314,67
232229,297,67
232241,317,67
232251,307,67
232259,305,67
232271,320,67
232280,300,67
232292,314,67
232302,314,67
232312,301,67
232322,321,67
232332,303,67
232343,308,67
232353,320,67
232362,300,67
232374,319,67
232384,313,67
232393,306,67
232404,324,67
232414,305,67
232424,317,67
232434,319,67
232445,306,67
232456,325,67
232462,311,67
232476,316,67
232486,329,67
232495,310,67
232507,328,67
232515,320,67
232526,314,67
232538,333,67
232547,313,67
232559,325,67
232569,324,67
232579,313,67
232589,334,67
232599,322,67
232610,330,67
232620,340,67
232628,318,67
232641,332,67
232651,324,67
232661,315,67
232671,331,67
232682,313,67
232692,323,67
232701,324,67
232712,291,67
232722,280,67
232732,370,67
232743,585,66
232753,652,66
232763,596,66
232774,259,66
232784,323,66
232794,298,66
232803,310,66
232815,294,66
232825,305,66
232836,313,66
232846,300,66
232856,321,66
232866,308,66
232877,312,66
232887,329,66
232897,311,66
232908,331,66
232918,329,66
232928,323,66
232938,347,66
232947,334,66
232959,351,66
232968,357,66
232980,344,66
232990,367,66
233000,359,66
233011,360,66
233019,361,66
233030,324,66
233040,324,66
233051,311,66
233061,295,66
233072,311,66
233080,292,66
233092,299,66
233103,310,66
233112,294,66
233123,317,66
233132,306,66
233143,308,66
233153,318,66
233163,300,66
233174,317,66
233185,315,66
233195,306,66
233205,326,66
233215,308,66
233225,317,66
233235,320,66
233246,304,66
233256,324,66
233266,313,66
233277,310,66
233287,325,66
233297,306,66
233308,317,66
233318,314,66
233328,306,66
233339,327,66
233347,306,66
233355,314,66
233368,324,66
233379,306,66
233389,326,66
233399,316,66
233410,314,66
233421,331,66
233430,312,66
233441,328,66
233452,321,66
233462,315,66
233472,331,66
233481,315,66
233492,335,66
233503,339,66
233513,318,66
233522,333,66
233533,323,66
233544,318,66
233553,333,66
233565,313,66
233574,325,66
233584,324,66
233594,297,66
233605,293,66
233614,368,66
233626,583,66
233636,651,66
233646,531,66
233656,249,66
233665,315,66
233677,303,66
233687,313,66
233697,298,66
233708,311,66
233717,314,66
233729,304,66
233739,326,66
233748,311,66
233759,319,66
233770,331,66
233779,315,66
233789,336,66
233801,330,66
233810,333,66
233820,351,66
233831,336,66
233841,355,66
233851,360,66
233862,351,66
233870,374,66
233882,361,66
233892,363,66
233902,357,66
233914,321,66
233923,322,66
233933,300,66
233944,292,66
233954,307,66
233964,287,66
233974,300,66
233985,302,66
233995,292,66
234004,315,66
234016,301,66
234026,307,66
234037,318,66
234047,299,66
234056,319,66
234067,310,66
234076,304,66
234087,318,66
234095,299,66
234108,309,66
234119,309,66
234129,296,66
234139,318,66
234149,301,66
234159,306,66
234169,317,66
234179,299,66
234190,318,66
234201,310,66
234211,306,66
234222,323,66
234231,304,66
234242,317,66
234251,318,66
234262,305,66
234272,327,66
234281,311,66
234290,314,66
234302,327,66
234313,303,66
234323,331,66
234333,328,66
234345,321,66
234355,334,66
234364,312,66
234375,325,66
234383,324,66
234396,310,66
234407,328,66
234416,312,66
234426,316,66
234437,303,66
234447,264,66
234458,415,66
234466,617,67
234474,652,67
234488,518,67
234497,240,67
234508,330,67
234519,308,67
234529,291,67
234537,314,67
234549,301,67
234558,306,67
234571,320,67
234580,302,67
234590,323,67
234602,318,67
234611,314,67
234622,335,67
234632,319,67
234642,334,67
234653,342,67
234660,332,67
234672,355,67
234683,346,67
234693,354,67
234703,367,67
234711,350,67
234724,370,67
234734,362,67
234745,341,67
234752,342,67
234766,309,67
234776,311,67
234785,312,67
234796,294,67
234806,313,67
234816,299,67
234826,302,67
234836,315,67
234848,298,67
234857,317,67
234868,313,67
234878,305,67
234889,324,67
234899,306,67
234909,315,67
234919,320,67
234930,301,67
234940,323,67
234950,309,67
234959,308,67
234970,321,67
234981,301,67
234990,319,67
235001,315,67
235012,306,67
235022,325,67
235032,305,67
235042,316,67
235053,321,67
235063,304,67
235072,325,67
235083,312,67
235094,312,67
235103,327,67
235114,308,67
235123,324,67
235132,320,67
235146,310,67
235155,330,67
235165,310,67
235173,320,67
235186,326,67
235194,310,67
235207,340,67
235217,324,67
235226,323,67
235238,334,67
235247,311,67
235255,328,67
235268,323,67
235278,311,67
235289,328,67
235299,310,67
235309,311,67
235319,280,67
235330,302,67
235338,528,67
235351,652,67
235361,651,67
235371,318,67
235379,286,67
235392,320,67
235402,296,67
235411,288,67
235422,310,67
235433,294,67
235442,305,67
235454,315,67
235463,300,67
235473,321,67
235483,313,67
235493,314,67
235504,332,67
235514,315,67
235525,335,67
235535,336,67
235545,330,67
235555,355,67
235565,343,67
235576,354,67
235586,362,67
235597,349,67
235607,371,67
235617,353,67
235627,335,67
235637,334,67
235647,301,67
235659,311,67
235667,305,67
235679,290,67
235689,313,67
235700,296,67
235710,304,67
235721,313,67
235729,296,67
235741,317,67
235751,307,67
235761,303,67
235772,319,67
235781,299,67
235792,314,67
235802,314,67
235812,300,67
235822,319,67
235833,302,67
235843,308,67
235853,316,67
235863,299,67
235875,320,67
235883,311,67
235893,306,67
235905,323,67
235914,304,67
235925,318,67
235935,317,67
235946,303,67
235956,325,67
235967,309,67
235976,313,67
235987,324,67
235997,304,67
236008,326,67
236017,315,67
236027,311,67
236039,328,67
236048,304,67
236059,322,67
236068,320,67
236080,313,67
236090,340,67
236099,321,67
236111,322,67
236121,332,67
236130,311,67
236142,328,67
236150,319,67
236160,312,67
236172,328,67
236181,311,67
236193,303,67
236203,277,67
236212,376,67
236224,610,67
236233,652,67
236244,574,67
236254,264,67
236264,318,67
236275,314,67
236285,300,67
236295,299,67
236305,317,67
236315,300,67
236326,314,67
236335,319,67
236346,306,67
236356,331,67
236366,318,67
236378,323,67
236388,338,67
236398,322,67
236408,342,67
236418,339,67
236429,339,67
236439,361,67
236448,345,67
236458,361,67
236470,367,67
236479,357,67
236490,375,67
236499,345,67
236511,330,67
236521,327,67
236532,296,67
236542,309,67
236552,301,67
236561,294,67
236571,312,67
236583,293,67
236593,308,67
236602,313,67
236612,298,67
236622,317,67
236632,309,67
236644,309,67
236653,320,67
236664,301,67
236674,318,67
236684,312,67
236696,305,67
236705,322,67
236716,306,67
236727,313,67
236736,317,67
236745,302,67
236756,318,67
236767,309,67
236777,312,67
236787,324,67
236798,303,67
236809,322,67
236819,316,67
236829,308,67
236838,328,67
236850,312,67
236859,322,67
236869,327,67
236880,313,67
236890,330,67
236900,314,67
236911,318,67
236921,330,67
236931,320,67
236942,338,67
236951,332,67
236962,317,67
236971,334,67
236981,314,67
236993,322,67
237004,326,67
237014,309,67
237024,328,67
237035,309,67
237045,276,67
237054,320,67
237064,497,67
237074,649,67
237084,636,67
237096,264,67
237106,295,67
237116,307,67
237127,299,67
237137,307,67
237146,292,67
237156,315,67
237168,305,67
237178,310,67
237187,324,67
237198,308,67
237208,326,67
237219,324,67
237229,316,67
237239,339,67
237249,327,67
237260,341,67
237268,353,67
237280,341,67
237288,366,67
237301,357,67
237311,360,67
237322,376,67
237332,355,67
237341,360,67
237352,339,67
237363,308,67
237373,315,67
237384,289,67
237393,293,67
237404,299,67
237414,282,67
237424,305,67
237435,294,67
237445,295,67
237455,314,67
237465,296,67
237475,314,67
237486,311,67
237495,301,67
237507,321,67
237517,303,67
237525,310,67
237537,316,67
237546,298,67
237556,317,67
237568,306,67
237578,305,67
237587,319,67
237599,299,67
237610,317,67
237620,314,67
237629,304,67
237640,326,67
237650,308,67
237660,317,67
237670,323,67
237681,307,67
237692,328,67
237701,315,67
237712,315,67
237722,327,67
237732,312,67
237742,335,67
237753,333,67
237763,318,67
237773,333,67
237783,315,67
237794,323,67
237804,328,67
237815,310,67
237823,330,67
237835,318,67
237845,306,67
237855,285,67
237865,316,67
237875,544,68
237887,651,68
237897,632,68
237907,270,68
237917,292,68
237927,312,68
237938,303,68
237948,290,68
237958,312,68
237969,304,68
237977,304,68
237989,321,68
237999,304,68
238009,324,68
238020,323,68
238029,314,68
238039,339,68
238049,326,68
238060,338,68
238071,349,68
238080,338,68
238091,362,68
238101,356,68
238111,358,68
238123,377,68
238133,360,68
238141,372,68
238153,359,68
238164,329,68
238173,332,68
238183,308,68
238194,309,68
238205,316,68
238215,297,68
238225,315,68
238236,308,68
238246,304,68
238254,320,68
238263,303,68
238277,319,68
238287,318,68
238296,305,68
238306,326,68
238317,310,68
238327,316,68
238337,326,68
238348,306,68
238358,324,68
238368,315,68
238379,310,68
238388,326,68
238398,305,68
238410,320,68
238420,320,68
238429,308,68
238439,327,68
238449,312,68
238460,316,68
238470,326,68
238480,308,68
238492,328,68
238502,320,68
238513,314,68
238522,331,68
238532,313,68
238542,328,68
238553,328,68
238562,314,68
238573,335,68
238584,316,68
238593,322,68
238604,331,68
238615,321,68
238626,343,68
238636,331,68
238645,324,68
238655,337,68
238665,316,68
238677,328,68
238687,328,68
238697,314,68
238706,333,68
238718,315,68
238727,296,68
238738,282,68
238748,389,68
238758,625,68
238769,652,68
238779,572,68
238789,271,68
238799,318,68
238810,307,68
238820,304,68
238830,293,68
238840,316,68
238851,302,68
238861,309,68
238870,323,68
238881,305,68
238892,326,68
238903,320,68
238912,317,68
238923,335,68
238933,318,68
238944,335,68
238954,341,68
238964,331,68
238973,357,68
238983,346,68
238995,352,68
239005,366,68
239016,348,68
239026,366,68
239036,348,68
239045,326,68
239057,330,68
239067,301,68
239077,308,68
239087,311,68
239096,295,68
239108,316,68
239118,302,68
239127,305,68
239138,317,68
239148,299,68
239159,319,68
239170,313,68
239180,305,68
239190,324,68
239200,304,68
239209,316,68
239221,320,68
239231,303,68
239241,323,68
239251,307,68
239262,308,68
239271,321,68
239282,302,68
239292,320,68
239303,313,68
239314,306,68
239323,325,68
239333,305,68
239343,316,68
239354,320,68
239365,305,68
239374,326,68
239384,311,68
239394,312,68
239404,328,68
239412,306,68
239426,325,68
239437,320,68
239447,312,68
239457,332,68
239467,313,68
239477,324,68
239487,329,68
239497,312,68
239507,331,68
239518,318,68
239529,320,68
239538,344,68
239548,321,68
239559,336,68
239571,326,68
239579,317,68
239590,333,68
239600,314,68
239610,322,68
239621,328,68
239631,309,68
239640,322,68
239652,271,68
239663,298,68
239672,507,68
239683,651,68
239692,652,68
239703,350,68
239713,280,68
239724,328,68
239734,284,68
239744,297,68
239754,304,68
239762,290,68
239775,315,68
239785,303,68
239795,304,68
239805,322,68
239815,304,68
239827,321,68
239836,320,68
239846,314,68
239856,338,68
239867,324,68
239877,337,68
239888,349,68
239898,338,68
239909,361,68
239915,352,68
239929,355,68
239939,373,68
239949,344,68
239958,347,68
239970,326,68
239977,305,68
239989,314,68
240000,292,68
240011,301,68
240021,309,68
240030,293,68
240041,312,68
240051,301,68
240062,304,68
240072,320,68
240081,298,68
240093,314,68
240103,310,68
240113,300,68
240122,320,68
240135,303,68
240144,311,68
240155,315,68
240164,297,68
240175,318,68
240185,309,68
240195,305,68
240206,319,68
240215,301,68
240227,317,68
240237,314,68
240247,304,68
240257,322,68
240267,305,68
240278,314,68
240289,324,68
240295,308,68
240309,327,68
240319,316,68
240327,314,68
240340,328,68
240348,307,68
240359,322,68
240370,320,68
240377,311,68
240389,332,68
240400,311,68
240411,316,68
240422,337,68
240432,318,68
240442,335,68
240450,320,68
240462,317,68
240473,330,68
240482,311,68
240492,322,68
240502,319,68
240512,309,68
240524,321,68
240533,272,68
240543,310,68
240555,515,68
240565,645,68
240575,637,68
240584,272,68
240596,284,68
240607,326,68
240617,285,68
240626,307,68
240636,307,68
240646,300,68
240656,321,68
240668,306,68
240677,315,68
240688,326,68
240699,309,68
240709,332,68
240719,325,68
240729,326,68
240741,345,68
240749,329,68
240761,350,68
240770,354,68
240780,348,68
240790,372,68
240801,360,68
240812,369,68
240822,376,68
240831,347,68
240843,347,68
240849,318,68
240862,302,68
240872,311,68
240882,287,68
240894,300,68
240904,299,68
240914,287,68
240925,311,68
240935,296,68
240945,302,68
240955,313,68
240965,296,68
240976,316,68
240986,307,68
240996,304,68
241006,321,68
241016,300,68
241028,312,68
241038,311,68
241048,298,68
241058,317,68
241068,302,68
241079,307,68
241090,318,68
241099,298,68
241110,317,68
241120,308,68
241129,303,68
241141,320,68
241150,300,68
241161,317,68
241171,317,68
241181,307,68
241192,329,68
241201,313,68
241211,319,68
241220,331,68
241233,313,68
241243,330,68
241254,323,68
241262,316,68
241274,344,68
241283,328,68
241294,340,68
241303,337,68
241314,321,68
241326,340,68
241335,323,68
241345,326,68
241355,335,68
241365,316,68
241377,334,68
241385,297,68
241397,276,68
241407,438,68
241416,625,69
241428,652,69
241438,507,69
241448,249,69
241458,343,69
241468,300,69
241479,304,69
241490,315,69
241500,299,69
241510,319,69
241521,313,69
241531,309,69
241541,330,69
241550,312,69
241562,328,69
241572,330,69
241581,319,69
241591,345,69
241601,332,69
241612,340,69
241623,357,69
241632,341,69
241644,365,69
241653,360,69
241664,357,69
241674,374,69
241683,351,69
241695,350,69
241705,335,69
241715,308,69
241725,321,69
241735,301,69
241745,303,69
241753,313,69
241766,295,69
241777,314,69
241787,308,69
241798,301,69
241808,321,69
241818,301,69
241829,313,69
241839,315,69
241848,301,69
241859,322,69
241868,307,69
241879,311,69
241889,320,69
241900,303,69
241911,320,69
241921,311,69
241931,305,69
241941,322,69
241950,303,69
241962,314,69
241972,317,69
241981,304,69
241993,325,69
242002,308,69
242012,311,69
242022,324,69
242032,305,69
242044,324,69
242054,318,69
242064,310,69
242074,328,69
242084,308,69
242095,320,69
242104,324,69
242116,309,69
242126,329,69
242135,316,69
242145,317,69
242157,339,69
242166,320,69
242178,337,69
242188,326,69
242198,316,69
242208,335,69
242216,314,69
242228,323,69
242237,325,69
242248,309,69
242260,328,69
242270,277,69
242279,288,69
242289,480,69
242300,650,69
242310,652,69
242320,409,69
242331,269,69
242341,336,69
242351,290,69
242362,302,69
242371,309,69
242382,295,69
242393,318,69
242404,306,69
242412,310,69
242421,325,69
242434,307,69
242444,327,69
242454,323,69
242465,320,69
242475,342,69
242483,327,69
242495,342,69
242505,350,69
242516,339,69
242527,363,69
242537,354,69
242546,359,69
242556,373,69
242566,349,69
242578,351,69
242588,329,69
242598,307,69
242608,319,69
242616,294,69
242629,303,69
242640,308,69
242648,294,69
242660,315,69
242670,302,69
242679,301,69
242689,318,69
242700,297,69
242711,313,69
242720,310,69
242731,301,69
242741,320,69
242752,302,69
242763,310,69
242773,313,69
242783,297,69
242793,317,69
242800,304,69
242812,305,69
242824,321,69
242833,300,69
242845,316,69
242855,310,69
242865,303,69
242875,322,69
242885,304,69
242895,314,69
242905,321,69
242916,305,69
242927,325,69
242937,315,69
242946,312,69
242958,327,69
242968,308,69
242978,327,69
242987,320,69
242997,314,69
243009,330,69
243018,319,69
243029,335,69
243039,338,69
243048,317,69
243060,336,69
243071,324,69
243079,323,69
243091,333,69
243100,309,69
243112,327,69
243122,322,69
243131,294,69
243143,285,69
243152,369,69
243162,591,69
243173,652,69
243183,545,69
243194,249,69
243204,317,69
243213,299,69
243224,307,69
243235,294,69
243246,312,69
243256,312,69
243265,302,69
243275,323,69
243285,309,69
243296,320,69
243304,328,69
243316,315,69
243326,336,69
243337,329,69
243347,330,69
243357,349,69
243367,335,69
243379,356,69
243388,359,69
243398,352,69
243409,372,69
243420,358,69
243429,361,69
243439,355,69
243449,317,69
243461,321,69
243470,301,69
243479,292,69
243492,304,69
243501,286,69
243512,300,69
243523,298,69
243532,290,69
243543,312,69
243553,296,69
243562,305,69
243573,312,69
243583,296,69
243594,317,69
243604,305,69
243614,302,69
243625,317,69
243635,301,69
243645,313,69
243654,311,69
243666,301,69
243676,320,69
243687,303,69
243695,308,69
243705,318,69
243716,299,69
243728,319,69
243737,309,69
243748,307,69
243759,323,69
243766,304,69
243778,318,69
243788,318,69
243799,305,69
243810,329,69
243818,309,69
243830,317,69
243840,335,69
243850,317,69
243862,333,69
243872,319,69
243881,314,69
243892,329,69
243902,310,69
243912,323,69
243922,318,69
243933,307,69
243943,318,69
243954,266,69
243963,331,69
243974,550,69
243983,650,69
243995,612,69
244004,247,69
244015,301,69
244026,323,69
244033,290,69
244046,311,69
244056,311,69
244066,301,69
244076,325,69
244086,310,69
244096,319,69
244107,330,69
244117,316,69
244127,338,69
244137,329,69
244149,330,69
244159,350,69
244169,335,69
244178,354,69
244188,358,69
244199,352,69
244209,374,69
244219,361,69
244228,371,69
244239,374,69
244251,343,69
244261,342,69
244269,316,69
244282,301,69
244291,312,69
244303,287,69
244313,302,69
244321,301,69
244333,291,69
244344,313,69
244352,298,69
244362,306,69
244373,317,69
244384,300,69
244394,318,69
244405,312,69
244415,309,69
244425,325,69
244436,305,69
244445,317,69
244455,317,69
244467,306,69
244477,325,69
244486,308,69
244496,315,69
244507,322,69
244518,306,69
244527,326,69
244538,315,69
244548,313,69
244559,329,69
244570,309,69
244578,324,69
244589,324,69
244600,311,69
244611,332,69
244620,318,69
244630,321,69
244640,330,69
244651,312,69
244660,329,69
244672,322,69
244682,317,69
244692,340,69
244702,326,69
244712,338,69
244723,336,69
244734,319,69
244744,340,69
244753,322,69
244763,325,69
244773,334,69
244786,315,69
244795,333,69
244804,304,69
244816,266,69
244825,385,69
244836,585,69
244846,652,69
244855,622,69
244867,252,69
244877,335,69
244888,301,69
244897,298,69
244907,311,69
244918,294,69
244928,317,69
244937,308,69
244949,306,69
244958,326,69
244969,307,69
244980,322,69
244990,327,69
245001,315,69
245011,339,69
245020,326,69
245030,335,69
245040,349,69
245052,335,69
245062,358,69
245071,353,69
245082,349,69
245092,371,69
245103,348,69
245113,351,69
245124,335,69
245134,308,69
245141,319,69
245153,297,69
245165,301,69
245175,312,69
245185,293,69
245194,312,69
245205,306,69
245216,301,69
245226,320,69
245236,301,69
245246,313,69
245257,315,69
245267,300,69
245277,322,69
245286,306,69
245297,310,69
245309,320,69
245319,301,69
245328,319,69
245338,310,69
245348,305,69
245359,322,69
245369,302,69
245380,317,69
245390,318,69
245401,304,69
245411,325,69
245420,309,69
245430,312,69
245442,323,69
245452,305,69
245461,323,69
245471,317,69
245483,311,69
245493,328,69
245502,309,69
245510,321,69
245523,325,69
245534,311,69
245545,328,69
245555,315,69
245565,317,69
245575,338,69
245586,321,69
245596,337,69
245606,328,69
245615,316,69
245625,334,69
245636,312,69
245647,323,69
245656,326,69
245668,309,69
245677,329,69
245688,287,69
245698,270,69
245709,419,69
245719,611,69
245729,652,69
245740,534,69
245750,246,69
245760,337,69
245769,290,69
245781,299,69
245790,304,69
245801,292,69
245811,314,69
245822,302,69
245831,306,69
245841,322,69
245853,305,69
245861,325,69
245873,321,69
245883,316,69
245893,339,69
245903,324,69
245914,341,69
245924,348,69
245934,338,69
245945,362,69
245954,351,69
245964,354,69
245976,368,69
245986,349,69
245996,354,69
246006,331,69
246016,308,69
246026,317,69
246037,297,69
246046,305,69
246057,309,69
246068,294,69
246078,315,69
246089,300,69
246099,306,69
246109,317,69
246119,299,69
246127,317,69
246139,312,69
246149,305,69
246160,322,69
246171,304,69
246181,314,69
246190,319,69
246200,304,69
246210,322,69
246222,310,69
246232,311,69
246242,324,69
246252,304,69
246263,322,69
246273,319,69
246284,308,69
246294,328,69
246304,309,69
246315,318,69
246325,323,69
246335,308,69
246345,327,69
246355,315,69
246364,318,69
246376,331,69
246386,309,69
246396,328,69
246407,324,69
246417,317,69
246427,336,69
246438,318,69
246448,329,69
246458,332,69
246468,319,69
246479,336,69
246490,334,69
246499,337,69
246509,348,69
246519,324,69
246529,337,69
246539,334,69
246549,324,69
246560,338,69
246571,316,69
246581,327,69
246591,330,69
246602,278,69
246611,308,69
246623,477,69
246631,649,68
246642,652,68
246653,356,68
246663,283,68
246672,330,68
246681,295,68
246694,317,68
246704,300,68
246714,311,68
246724,318,68
246736,305,68
246744,327,68
246756,317,68
246766,319,68
246777,334,68
246787,319,68
246797,336,68
246806,335,68
246817,329,68
246827,352,68
246838,336,68
246848,352,68
246858,362,68
246869,349,68
246879,372,68
246889,361,68
246898,352,68
246908,347,68
246920,307,68
246930,312,68
246939,299,68
246947,284,68
246960,303,68
246972,284,68
246981,293,68
246991,301,68
247001,286,68
247011,307,68
247022,296,68
247032,294,68
247042,310,68
247054,292,68
247064,306,68
247073,301,68
247083,295,68
247094,314,68
247105,294,68
247115,303,68
247125,308,68
247132,291,68
247145,314,68
247156,298,68
247166,299,68
247175,314,68
247187,294,68
247197,311,68
247206,309,68
247216,300,68
247227,318,68
247238,304,68
247246,313,68
247259,321,68
247267,306,68
247278,323,68
247290,312,68
247300,310,68
247309,332,68
247319,318,68
247330,334,68
247340,324,68
247351,312,68
247361,331,68
247372,309,68
247381,319,68
247390,323,68
247403,305,68
247413,324,68
247423,289,68
247433,277,68
247444,429,68
247454,602,69
247464,650,69
247474,415,69
247484,240,69
247494,334,69
247506,296,69
247514,304,69
247525,315,69
247535,300,69
247546,323,69
247557,313,69
247567,315,69
247577,330,69
247587,314,69
247595,333,69
247607,333,69
247617,327,69
247627,350,69
247639,338,69
247648,352,69
247659,365,69
247669,354,69
247679,378,69
247689,366,69
247699,371,69
247711,385,69
247721,356,69
247730,355,69
247741,332,69
247751,307,69
247761,318,69
247772,296,69
247782,304,69
247792,309,69
247802,293,69
247813,314,69
247823,305,69
247834,306,69
247843,321,69
247855,303,69
247863,320,69
247874,317,69
247885,308,69
247894,326,69
247906,307,69
247915,314,69
247926,320,69
247936,302,69
247946,320,69
247957,308,69
247967,306,69
247977,321,69
247986,301,69
247997,317,69
248007,313,69
248017,302,69
248028,322,69
248039,305,69
248049,312,69
248059,320,69
248069,304,69
248080,324,69
248090,313,69
248101,310,69
248111,328,69
248121,307,69
248132,323,69
248142,332,69
248152,318,69
248161,337,69
248171,315,69
248182,320,69
248192,325,69
248202,307,69
248212,326,69
248225,313,69
248234,311,69
248244,320,69
248255,260,69
248265,315,69
248275,524,69
248284,651,69
248296,651,69
248306,300,69
248316,298,69
248325,325,69
248335,286,69
248345,310,69
248357,300,69
248367,300,69
248377,317,69
248388,301,69
248398,320,69
248408,320,69
248418,309,69
248429,331,69
248439,317,69
248449,328,69
248458,338,69
248470,324,69
248480,349,69
248490,344,69
248499,346,69
248511,364,69
248521,348,69
248531,366,69
248542,364,69
248552,343,69
248562,349,69
248573,316,69
248583,311,69
248592,312,69
248601,291,69
248614,310,69
248624,299,69
248634,297,69
248643,314,69
248655,296,69
248664,312,69
248676,311,69
248685,300,69
248696,322,69
248706,304,69
248716,311,69
248727,320,69
248737,301,69
248746,321,69
248758,310,69
248766,306,69
248778,321,69
248788,302,69
248797,316,69
248809,315,69
248820,304,69
248828,324,69
248840,306,69
248850,314,69
248861,321,69
248871,304,69
248881,323,69
248891,313,69
248901,311,69
248911,328,69
248921,308,69
248932,323,69
248943,324,69
248951,312,69
248963,332,69
248973,314,69
248981,318,69
248994,329,69
249003,312,69
249014,342,69
249024,328,69
249032,323,69
249044,336,69
249054,315,69
249064,329,69
249076,326,69
249085,313,69
249096,333,69
249106,317,69
249117,315,69
249127,285,69
249138,296,69
249148,518,69
249158,652,69
249167,652,69
249177,354,69
249189,284,69
249199,323,69
249209,300,69
249219,290,69
249229,311,69
249239,297,69
249250,306,69
249261,316,69
249270,301,69
249279,324,69
249291,316,69
249302,313,69
249312,334,69
249321,316,69
249333,333,69
249342,337,69
249352,330,69
249361,354,69
249374,342,69
249383,352,69
249394,364,69
249404,349,69
249414,371,69
249424,353,69
249435,335,69
249445,335,69
249455,304,69
249466,310,69
249476,309,69
249486,296,69
249495,316,69
249507,299,69
249516,306,69
249528,316,69
249537,297,69
249548,318,69
249558,310,69
249567,304,69
249579,320,69
249589,301,69
249600,314,69
249609,315,69
249620,298,69
249630,318,69
249640,303,69
249651,308,69
249661,316,69
249670,297,69
249680,317,69
249690,310,69
249702,304,69
249712,321,69
249722,302,69
249732,317,69
249743,320,69
249753,306,69
249762,327,69
249774,312,69
249783,317,69
249795,328,69
249804,309,69
249814,327,69
249825,321,69
249835,315,69
249845,333,69
249856,311,69
249865,325,69
249876,325,69
249887,313,69
249897,346,69
249908,329,69
249918,329,69
249928,335,69
249938,314,69
249947,331,69
249959,322,69
249969,316,69
249978,332,69
249988,314,69
250000,317,69
250010,278,69
250020,317,69
250029,548,69
250041,652,69
250051,648,69
250061,294,69
250072,300,69
250081,325,69
250092,300,69
250101,300,69
250112,318,69
250122,302,69
250133,317,69
250144,320,69
250153,311,69
250162,332,69
250174,318,69
250185,326,69
250195,341,69
250205,321,69
250214,342,69
250226,341,69
250236,341,69
250246,362,69
250254,345,69
250266,365,69
250277,369,69
250287,357,69
250295,377,69
250308,352,69
250318,337,69
250327,329,69
250338,297,69
250348,312,69
250358,302,69
250368,294,69
250378,312,69
250390,293,69
250400,302,69
250410,306,69
250421,294,69
250430,313,69
250441,300,69
250451,305,69
250461,317,69
250471,297,69
250483,314,69
250493,306,69
250503,299,69
250512,319,69
250523,298,69
250533,305,69
250544,311,69
250554,294,69
250565,313,69
250575,299,69
250585,303,69
250595,314,69
250606,295,69
250615,314,69
250625,310,69
250635,302,69
250645,321,69
250657,303,69
250666,316,69
250677,316,69
250687,303,69
250698,324,69
250708,306,69
250718,318,69
250728,333,69
250739,314,69
250749,324,69
250759,319,69
250768,313,69
250778,327,69
250790,307,69
250800,316,69
250811,318,69
250820,302,69
250831,295,69
250842,278,69
250852,438,69
250862,632,70
250871,648,70
250883,359,70
250893,258,70
250902,312,70
250912,305,70
250924,291,70
250934,306,70
250944,310,70
250953,297,70
250964,318,70
250975,309,70
250984,314,70
250995,328,70
251005,310,70
251016,333,70
251027,330,70
251036,328,70
251045,352,70
251055,337,70
251066,356,70
251078,364,70
251088,354,70
251097,376,70
251109,364,70
251118,368,70
251129,370,70
251139,334,70
251150,333,70
251160,312,70
251170,297,70
251181,312,70
251191,291,70
251201,303,70
251211,306,70
251222,293,70
251231,315,70
251241,304,70
251251,309,70
251262,322,70
251272,303,70
251282,322,70
251293,316,70
251304,309,70
251313,326,70
251324,306,70
251334,317,70
251345,319,70
251354,303,70
251364,324,70
251375,310,70
251385,310,70
251395,323,70
251405,304,70
251415,322,70
251427,316,70
251437,308,70
251446,329,70
251456,309,70
251468,321,70
251478,325,70
251487,312,70
251497,329,70
251509,317,70
251519,317,70
251529,331,70
251539,321,70
251549,337,70
251559,328,70
251570,317,70
251580,333,70
251591,312,70
251600,321,70
251611,324,70
251621,309,70
251631,330,70
251642,307,70
251652,270,70
251662,326,70
251672,515,70
251683,651,70
251694,650,70
251703,286,70
251713,314,70
251723,308,70
251735,301,70
251745,310,70
251755,295,70
251765,317,70
251775,305,70
251783,309,70
251796,323,70
251807,306,70
251816,325,70
251827,322,70
251838,316,70
251847,337,70
251858,322,70
251867,338,70
251878,346,70
251888,336,70
251899,362,70
251909,350,70
251917,354,70
251929,371,70
251938,352,70
251950,357,70
251960,337,70
251970,314,70
251979,322,70
251991,299,70
252000,307,70
252012,311,70
252022,295,70
252031,316,70
252043,302,70
252052,305,70
252063,319,70
252073,301,70
252084,318,70
252094,313,70
252103,305,70
252113,325,70
252125,307,70
252135,316,70
252145,320,70
252154,303,70
252165,323,70
252174,308,70
252186,310,70
252197,323,70
252205,304,70
252216,322,70
252228,317,70
252238,308,70
252246,328,70
252257,308,70
252268,319,70
252278,323,70
252288,308,70
252298,328,70
252308,316,70
252320,316,70
252330,331,70
252341,311,70
252350,327,70
252360,323,70
252370,316,70
252379,336,70
252392,329,70
252400,334,70
252412,337,70
252422,318,70
252433,336,70
252443,321,70
252453,320,70
252463,333,70
252473,312,70
252484,328,70
252495,319,70
252505,271,70
252514,311,70
252524,484,70
252534,651,70
252545,652,70
252555,349,70
252565,298,70
252577,317,70
252586,292,70
252597,310,70
252607,292,70
252617,310,70
252628,308,70
252636,302,70
252647,324,70
252657,307,70
252667,320,70
252679,326,70
252689,313,70
252699,336,70
252710,328,70
252720,332,70
252730,349,70
252741,335,70
252750,356,70
252761,354,70
252770,349,70
252781,371,70
252789,354,70
252802,356,70
252813,348,70
252822,313,70
252832,322,70
252843,303,70
252852,299,70
252864,314,70
252874,294,70
252884,311,70
252895,308,70
252905,298,70
252914,319,70
252922,301,70
252935,310,70
252946,317,70
252956,299,70
252966,320,70
252976,308,70
252987,308,70
252996,321,70
253008,300,70
253018,315,70
253028,312,70
253037,302,70
253047,322,70
253059,304,70
253069,314,70
253079,319,70
253090,303,70
253099,321,70
253110,309,70
253119,308,70
253130,323,70
253141,303,70
253151,319,70
253162,319,70
253172,308,70
253181,329,70
253193,312,70
253201,320,70
253213,325,70
253223,308,70
253233,328,70
253244,319,70
253253,327,70
253264,340,70
253274,316,70
253285,329,70
253294,326,70
253305,313,70
253316,331,70
253326,311,70
253335,319,70
253346,325,70
253355,302,70
253366,282,70
253377,319,70
253386,526,70
253397,652,70
253407,648,70
253418,286,70
253428,308,70
253438,304,70
253449,307,70
253459,297,70
253468,303,70
253480,312,70
253490,300,70
253499,320,70
253509,314,70
253520,313,70
253530,329,70
253540,312,70
253551,330,70
253561,333,70
253572,325,70
253582,348,70
253592,337,70
253603,349,70
253614,361,70
253624,350,70
253633,371,70
253644,363,70
253654,361,70
253664,365,70
253675,330,70
253685,331,70
253695,316,70
253705,299,70
253715,311,70
253727,294,70
253736,301,70
253747,309,70
253757,292,70
253766,312,70
253776,305,70
253788,301,70
253797,319,70
253809,299,70
253818,314,70
253829,316,70
253839,302,70
253848,318,70
253856,300,70
253869,306,70
253880,313,70
253891,297,70
253899,315,70
253911,305,70
253921,302,70
253930,318,70
253941,297,70
253952,311,70
253962,309,70
253973,298,70
253982,320,70
253992,303,70
254002,309,70
254010,314,70
254023,301,70
254031,317,70
254045,309,70
254053,305,70
254064,323,70
254075,311,70
254085,325,70
254095,320,70
254105,307,70
254116,324,70
254126,307,70
254137,312,70
254147,319,70
254157,299,70
254167,319,70
254177,292,70
254187,265,70
254198,378,70
254207,567,70
254218,650,70
254228,495,70
254240,224,70
254249,324,70
254259,293,70
254270,297,70
254281,309,70
254290,292,70
254299,314,70
254312,307,70
254322,306,70
254332,325,70
254342,308,70
254352,326,70
254362,327,70
254372,318,70
254382,343,70
254392,328,70
254404,342,70
254414,358,70
254423,342,70
254435,370,70
254445,364,70
254455,364,70
254465,380,70
254476,355,70
254485,354,70
254496,334,70
254505,307,70
254515,316,70
254527,293,70
254536,300,70
254548,306,70
254558,289,70
254567,310,70
254579,303,70
254589,299,70
254599,317,70
254609,302,70
254619,317,70
254629,315,70
254640,305,70
254650,325,70
254660,307,70
254670,311,70
254680,322,70
254691,302,70
254701,321,70
254711,311,70
254722,305,70
254732,323,70
254742,302,70
254753,317,70
254763,316,70
254772,303,70
254783,324,70
254793,309,70
254803,314,70
254815,325,70
254823,308,70
254835,326,70
254844,319,70
254855,313,70
254865,332,70
254876,322,70
254885,334,70
254893,330,70
254906,316,70
254916,334,70
254926,317,70
254938,320,70
254948,328,70
254957,307,70
254967,328,70
254977,309,70
254989,268,70
254999,331,70
255008,522,71
255020,651,71
255030,637,71
255041,248,71
255051,310,71
255061,307,71
255070,293,71
255081,309,71
255090,293,71
255101,313,71
255112,308,71
255122,304,71
255133,323,71
255142,307,71
255151,325,71
255164,328,71
255174,318,71
255184,342,71
255194,330,71
255205,338,71
255215,355,71
255224,340,71
255235,362,71
255244,359,71
255255,355,71
255265,375,71
255273,353,71
255286,354,71
255294,336,71
255307,307,71
255317,318,71
255326,296,71
255338,298,71
255347,307,71
255358,290,71
255368,309,71
255379,304,71
255389,300,71
255400,319,71
255408,302,71
255419,315,71
255430,318,71
255439,306,71
255450,327,71
255460,310,71
255471,315,71
255481,326,71
255491,306,71
255502,325,71
255512,315,71
255522,310,71
255533,326,71
255543,307,71
255553,320,71
255564,322,71
255572,308,71
255585,329,71
255593,313,71
255605,317,71
255615,328,71
255624,310,71
255636,329,71
255645,320,71
255655,316,71
255665,335,71
255676,315,71
255687,327,71
255696,325,71
255707,314,71
255718,334,71
255727,320,71
255738,333,71
255747,341,71
255758,318,71
255769,332,71
255779,324,71
255789,317,71
255799,333,71
255809,312,71
255820,324,71
255831,326,71
255841,300,71
255851,281,71
255860,324,71
255871,542,71
255880,652,71
255891,650,71
255903,302,71
255912,310,71
255922,308,71
255932,310,71
255943,294,71
255954,308,71
255964,311,71
255974,299,71
255984,323,71
255995,310,71
256005,315,71
256016,330,71
256025,311,71
256037,333,71
256045,329,71
256057,325,71
256067,346,71
256076,332,71
256087,350,71
256097,357,71
256108,346,71
256118,369,71
256127,356,71
256139,359,71
256149,361,71
256159,327,71
256169,332,71
256179,314,71
256188,301,71
256200,319,71
256209,297,71
256221,309,71
256230,311,71
256240,298,71
256252,320,71
256259,305,71
256272,309,71
256282,320,71
256292,301,71
256303,320,71
256312,312,71
256323,307,71
256333,324,71
256343,305,71
256354,316,71
256364,320,71
256374,302,71
256385,323,71
256394,307,71
256405,310,71
256414,322,71
256426,304,71
256436,322,71
256446,316,71
256456,309,71
256466,326,71
256477,308,71
256487,319,71
256497,324,71
256508,307,71
256518,329,71
256528,314,71
256539,317,71
256548,328,71
256558,311,71
256570,329,71
256580,322,71
256589,315,71
256599,331,71
256610,314,71
256621,322,71
256631,334,71
256642,322,71
256652,339,71
256662,324,71
256672,323,71
256683,334,71
256693,314,71
256703,330,71
256713,323,71
256722,314,71
256733,334,71
256744,289,71
256755,273,71
256764,399,71
256774,603,70
256784,653,70
256796,580,70
256806,254,70
256816,337,70
256826,292,70
256835,306,70
256846,302,70
256856,296,70
256866,318,70
256877,300,70
256888,313,70
256898,318,70
256907,306,70
256919,327,70
256928,316,70
256939,318,70
256949,336,70
256959,320,70
256971,342,70
256981,342,70
256989,340,70
256997,363,70
257011,348,70
257021,360,70
257030,368,70
257041,350,70
257051,360,70
257062,330,70
257073,316,70
257081,319,70
257093,294,70
257104,308,70
257113,302,70
257122,294,70
257133,313,70
257145,296,70
257155,307,70
257165,311,70
257173,297,70
257185,318,70
257196,307,70
257206,307,70
257216,318,70
257225,300,70
257235,316,70
257247,310,70
257256,302,70
257264,322,70
257278,302,70
257288,309,70
257297,318,70
257308,301,70
257319,322,70
257329,309,70
257340,308,70
257350,322,70
257360,304,70
257370,320,70
257380,318,70
257391,307,70
257401,327,70
257410,310,70
257422,320,70
257432,324,70
257441,308,70
257453,329,70
257462,317,70
257473,316,70
257481,331,70
257493,310,70
257501,328,70
257513,321,70
257524,314,70
257534,333,70
257543,321,70
257555,334,70
257564,340,70
257575,319,70
257586,336,70
257595,323,70
257606,322,70
257617,335,70
257627,313,70
257638,330,70
257648,327,70
257656,292,70
257668,289,70
257677,392,70
257689,609,70
257699,652,70
257709,520,70
257720,260,70
257729,326,70
257739,301,70
257749,312,70
257760,298,70
257771,316,70
257780,316,70
257792,307,70
257802,330,70
257812,312,70
257822,322,70
257832,330,70
257842,316,70
257852,340,70
257862,331,70
257872,331,70
257882,350,70
257893,338,70
257904,358,70
257914,361,70
257924,352,70
257934,373,70
257945,357,70
257955,363,70
257966,354,70
257975,319,70
257987,324,70
257994,302,70
258006,297,70
258016,309,70
258027,284,70
258037,303,70
258048,303,70
258057,290,70
258069,315,70
258079,295,70
258090,304,70
258098,313,70
258110,297,70
258120,316,70
258130,304,70
258140,305,70
258150,317,70
258160,296,70
258171,311,70
258181,307,70
258192,296,70
258202,316,70
258212,298,70
258222,306,70
258232,314,70
258242,297,70
258254,316,70
258261,303,70
258273,305,70
258283,321,70
258293,301,70
258304,316,70
258315,313,70
258325,304,70
258336,324,70
258344,308,70
258356,316,70
258366,323,70
258377,301,70
258387,334,70
258397,324,70
258407,322,70
258417,331,70
258427,311,70
258438,325,70
258448,320,70
258458,310,70
258469,330,70
258478,310,70
258490,317,70
258498,291,70
258508,284,70
258521,479,70
258529,635,70
258540,647,70
258548,332,70
258560,261,70
258572,327,70
258582,302,70
258591,295,70
258601,318,70
258611,302,70
258622,315,70
258631,323,70
258643,306,70
258652,332,70
258665,321,70
258673,323,70
258681,341,70
258695,323,70
258704,346,70
258715,348,70
258725,342,70
258735,368,70
258745,353,70
258756,365,70
258767,375,70
258777,360,70
258787,379,70
258797,356,70
258806,336,70
258818,332,70
258828,299,70
258839,308,70
258849,302,70
258859,289,70
258869,308,70
258879,292,70
258890,302,70
258900,311,70
258909,294,70
258919,317,70
258931,308,70
258941,305,70
258950,322,70
258962,302,70
258972,319,70
258982,314,70
258992,302,70
259002,322,70
259012,303,70
259023,311,70
259033,318,70
259043,299,70
259054,321,70
259065,310,70
259075,308,70
259084,323,70
259094,304,70
259104,321,70
259116,320,70
259125,308,70
259136,329,70
259147,312,70
259155,319,70
259167,328,70
259176,311,70
259188,329,70
259198,320,70
259207,316,70
259217,340,70
259227,323,70
259238,338,70
259249,333,70
259260,318,70
259269,338,70
259279,317,70
259290,323,70
259300,330,70
259310,312,70
259321,333,70
259331,296,70
259342,269,70
259350,410,70
259362,606,70
259373,652,70
259383,561,70
259393,244,70
259403,342,70
259413,299,70
259423,303,70
259434,313,70
259444,296,70
259454,320,70
259464,311,70
259475,312,70
259486,330,70
259495,311,70
259504,327,70
259516,328,70
