Timestamp,ECGValue,BPM
1015561,552,70
1015571,652,70
1015582,652,70
1015592,338,70
1015603,285,70
1015612,338,70
1015621,295,70
1015632,298,70
1015642,322,70
1015653,293,70
1015662,322,70
1015675,318,70
1015684,303,70
1015694,337,70
1015704,310,70
1015716,325,70
1015724,338,70
1015735,313,70
1015746,348,70
1015756,336,70
1015767,337,70
1015776,367,70
1015787,340,70
1015797,369,70
1015807,367,70
1015817,353,70
1015828,385,70
1015838,350,70
1015848,342,70
1015859,336,70
1015868,294,70
1015880,319,70
1015889,298,70
1015900,294,70
1015909,318,70
1015919,288,70
1015929,311,70
1015940,311,70
1015952,293,70
1015961,325,70
1015972,298,70
1015982,310,70
1015992,324,70
1016003,296,70
1016013,325,70
1016024,309,70
1016033,302,70
1016040,328,70
1016053,295,70
1016062,318,70
1016074,317,70
1016086,295,70
1016094,329,70
1016105,302,70
1016115,311,70
1016125,327,70
1016136,295,70
1016147,327,70
1016157,312,70
1016167,306,70
1016176,333,70
1016186,300,70
1016198,323,70
1016208,324,70
1016218,303,70
1016227,336,70
1016237,310,70
1016249,317,70
1016259,334,70
1016269,304,70
1016278,334,70
1016291,320,70
1016301,310,70
1016309,340,70
1016320,309,70
1016330,327,70
1016341,330,70
1016352,308,70
1016362,341,70
1016372,326,70
1016383,330,70
1016393,344,70
1016403,310,70
1016413,337,70
1016423,324,70
1016434,313,70
1016443,341,70
1016453,309,70
1016464,328,70
1016474,324,70
1016486,260,70
1016496,315,70
1016506,493,70
1016516,651,69
1016525,652,69
1016537,332,69
1016547,301,69
1016557,327,69
1016567,288,69
1016577,321,69
1016586,290,69
1016597,310,69
1016607,319,69
1016619,296,69
1016628,330,69
1016639,310,69
1016649,317,69
1016660,338,69
1016670,309,69
1016680,340,69
1016690,335,69
1016701,327,69
1016710,362,69
1016720,338,69
1016730,360,69
1016741,372,69
1016752,349,69
1016761,385,69
1016773,365,69
1016783,358,69
1016793,361,69
1016804,309,69
1016814,322,69
1016824,305,69
1016834,288,69
1016844,318,69
1016854,286,69
1016865,302,69
1016874,312,69
1016886,288,69
1016894,323,69
1016906,302,69
1016916,303,69
1016927,326,69
1016937,294,69
1016947,322,69
1016958,315,69
1016966,300,69
1016977,331,69
1016987,302,69
1016998,315,69
1017007,324,69
1017020,296,69
1017029,328,69
1017040,308,69
1017050,306,69
1017060,331,69
1017070,298,69
1017081,325,69
1017090,320,69
1017101,302,69
1017112,335,69
1017122,307,69
1017132,319,69
1017142,332,69
1017153,302,69
1017162,335,69
1017173,318,69
1017183,313,69
1017191,341,69
1017204,308,69
1017213,333,69
1017223,329,69
1017235,312,69
1017244,342,69
1017254,315,69
1017263,336,69
1017275,347,69
1017286,316,69
1017296,342,69
1017306,325,69
1017317,320,69
1017327,343,69
1017337,310,69
1017346,332,69
1017358,329,69
1017368,299,69
1017378,293,69
1017388,322,69
1017398,554,69
1017408,652,69
1017420,648,69
1017429,296,69
1017440,309,69
1017446,310,69
1017459,319,69
1017471,292,69
1017480,315,69
1017491,318,69
1017502,298,69
1017511,332,69
1017521,310,69
1017532,318,69
1017541,338,69
1017553,309,69
1017562,342,69
1017572,332,69
1017584,328,69
1017594,359,69
1017604,334,69
1017614,360,69
1017624,366,69
1017635,348,69
1017644,384,69
1017655,361,69
1017666,366,69
1017676,374,69
1017686,324,69
1017697,335,69
1017707,309,69
1017717,291,69
1017728,319,69
1017738,285,69
1017747,304,69
1017757,310,69
1017768,286,69
1017779,321,69
1017789,297,69
1017799,302,69
1017809,322,69
1017820,289,69
1017830,320,69
1017840,310,69
1017850,296,69
1017860,327,69
1017870,294,69
1017880,312,69
1017892,317,69
1017902,292,69
1017911,325,69
1017921,303,69
1017930,305,69
1017943,326,69
1017953,294,69
1017963,323,69
1017974,314,69
1017984,299,69
1017994,331,69
1018005,299,69
1018014,317,69
1018025,325,69
1018035,298,69
1018045,332,69
1018056,311,69
1018066,311,69
1018075,335,69
1018085,303,69
1018095,330,69
1018107,321,69
1018116,308,69
1018127,338,69
1018137,312,69
1018147,336,69
1018158,341,69
1018169,312,69
1018178,340,69
1018188,317,69
1018198,316,69
1018210,338,69
1018220,305,69
1018230,330,69
1018241,324,69
1018249,289,69
1018261,289,69
1018271,359,69
1018281,601,69
1018291,652,69
1018301,603,69
1018311,271,69
1018322,321,69
1018332,302,69
1018343,318,69
1018353,289,69
1018364,315,69
1018374,313,69
1018385,298,69
1018394,332,69
1018405,305,69
1018414,319,69
1018425,335,69
1018434,308,69
1018445,343,69
1018455,329,69
1018466,328,69
1018476,358,69
1018486,329,69
1018497,361,69
1018508,363,69
1018517,349,69
1018528,385,69
1018538,357,69
1018549,367,69
1018558,366,69
1018568,316,69
1018579,331,69
1018590,304,69
1018600,292,69
1018609,317,69
1018620,283,69
1018631,304,69
1018641,307,69
1018651,285,69
1018660,318,69
1018670,294,69
1018682,304,69
1018693,321,69
1018703,290,69
1018712,319,69
1018722,307,69
1018731,299,69
1018743,324,69
1018753,293,69
1018764,314,69
1018774,314,69
1018785,293,69
1018795,326,69
1018805,301,69
1018815,307,69
1018825,323,69
1018835,294,69
1018846,323,69
1018857,308,69
1018867,299,69
1018876,330,69
1018886,294,69
1018897,316,69
1018908,317,69
1018918,295,69
1018928,332,69
1018938,304,69
1018949,309,69
1018960,329,69
1018969,296,69
1018979,327,69
1018989,322,69
1018999,311,69
1019009,345,69
1019020,302,69
1019030,325,69
1019042,328,69
1019051,299,69
1019062,340,69
1019072,308,69
1019083,311,69
1019090,332,69
1019102,257,69
1019112,310,69
1019123,498,69
1019134,647,68
1019144,649,68
1019154,287,68
1019165,285,68
1019175,332,68
1019186,281,68
1019196,322,68
1019205,298,68
1019215,301,68
1019226,328,68
1019237,295,68
1019246,326,68
1019256,319,68
1019267,307,68
1019277,344,68
1019287,311,68
1019297,335,68
1019309,346,68
1019319,323,68
1019329,368,68
1019339,345,68
1019348,355,68
1019360,383,68
1019369,350,68
1019379,385,68
1019389,374,68
1019400,348,68
1019410,360,68
1019421,303,68
1019432,308,68
1019442,310,68
1019452,275,68
1019461,311,68
1019472,288,68
1019483,290,68
1019493,316,68
1019502,282,68
1019512,311,68
1019524,306,68
1019534,291,68
1019543,328,68
1019553,294,68
1019565,311,68
1019575,323,68
1019585,291,68
1019594,328,68
1019606,304,68
1019615,303,68
1019627,330,68
1019637,294,68
1019646,321,68
1019657,316,68
1019666,299,68
1019677,332,68
1019685,301,68
1019698,319,68
1019708,328,68
1019719,300,68
1019729,329,68
1019739,309,68
1019750,317,68
1019760,346,68
1019770,307,68
1019779,331,68
1019789,325,68
1019799,303,68
1019810,340,68
1019822,305,68
1019831,319,68
1019843,330,68
1019852,292,68
1019860,293,68
1019873,313,68
1019883,515,69
1019894,651,69
1019904,606,69
1019914,266,69
1019924,304,69
1019934,304,69
1019943,326,69
1019954,301,69
1019964,315,69
1019975,332,69
1019986,301,69
1019995,343,69
1020006,325,69
1020016,322,69
1020027,354,69
1020036,321,69
1020047,350,69
1020058,355,69
1020067,334,69
1020077,379,69
1020089,354,69
1020097,368,69
1020109,394,69
1020118,364,69
1020129,400,69
1020139,388,69
1020150,371,69
1020160,386,69
1020171,325,69
1020180,331,69
1020191,321,69
1020202,289,69
1020211,322,69
1020221,290,69
1020231,301,69
1020242,322,69
1020252,288,69
1020262,322,69
1020272,307,69
1020282,297,69
1020294,330,69
1020305,295,69
1020314,321,69
1020325,322,69
1020331,296,69
1020345,333,69
1020355,305,69
1020366,311,69
1020376,331,69
1020386,292,69
1020397,326,69
1020406,313,69
1020416,300,69
1020428,334,69
1020438,297,69
1020448,317,69
1020458,321,69
1020467,295,69
1020479,331,69
1020489,314,69
1020498,319,69
1020510,341,69
1020519,298,69
1020529,331,69
1020539,317,69
1020550,302,69
1020561,335,69
1020571,299,69
1020581,319,69
1020591,325,69
1020601,262,69
1020611,286,69
1020621,419,69
1020631,641,69
1020643,652,69
1020652,429,69
1020662,266,69
1020674,327,69
1020683,286,69
1020695,320,69
1020703,288,69
1020713,307,69
1020725,318,69
1020734,290,69
1020745,329,69
1020756,307,69
1020766,309,69
1020776,338,69
1020786,302,69
1020796,338,69
1020807,336,69
1020817,322,69
1020827,363,69
1020837,335,69
1020847,358,69
1020857,375,69
1020869,345,69
1020878,387,69
1020888,365,69
1020899,352,69
1020910,360,69
1020919,304,69
1020929,321,69
1020940,308,69
1020951,283,69
1020961,322,69
1020970,289,69
1020981,303,69
1020992,318,69
1021001,286,69
1021012,325,69
1021020,304,69
1021033,300,69
1021044,331,69
1021052,293,69
1021062,322,69
1021075,319,69
1021083,297,69
1021095,335,69
1021105,299,69
1021115,313,69
1021125,327,69
1021135,291,69
1021146,329,69
1021156,310,69
1021166,303,69
1021176,334,69
1021186,296,69
1021197,323,69
1021206,321,69
1021216,299,69
1021228,333,69
1021238,303,69
1021247,311,69
1021259,338,69
1021266,305,69
1021279,340,69
1021288,317,69
1021299,309,69
1021310,338,69
1021321,300,69
1021329,325,69
1021338,324,69
1021350,299,69
1021362,337,69
1021371,287,69
1021382,257,69
1021392,372,69
1021401,572,70
1021413,653,70
1021423,638,70
1021433,253,70
1021444,341,70
1021453,289,70
1021463,303,70
1021475,308,70
1021483,284,70
1021496,326,70
1021505,297,70
1021514,307,70
1021526,330,70
1021533,295,70
1021546,334,70
1021556,321,70
1021566,313,70
1021576,348,70
1021587,315,70
1021597,345,70
1021607,354,70
1021617,331,70
1021629,375,70
1021638,349,70
1021649,360,70
1021659,384,70
1021669,344,70
1021679,364,70
1021690,330,70
1021699,302,70
1021711,326,70
1021721,285,70
1021731,305,70
1021741,311,70
1021751,282,70
1021761,323,70
1021771,296,70
1021783,301,70
1021793,325,70
1021801,288,70
1021813,323,70
1021823,312,70
1021834,296,70
1021844,330,70
1021854,294,70
1021865,313,70
1021875,322,70
1021885,291,70
1021896,330,70
1021905,303,70
1021915,305,70
1021926,330,70
1021936,292,70
1021946,324,70
1021956,313,70
1021967,298,70
1021977,334,70
1021987,298,70
1021997,316,70
1022007,326,70
1022019,297,70
1022029,334,70
1022039,309,70
1022048,309,70
1022058,335,70
1022069,294,70
1022080,330,70
1022091,318,70
1022101,309,70
1022111,348,70
1022121,313,70
1022132,327,70
1022142,334,70
1022152,302,70
1022162,335,70
1022172,310,70
1022182,308,70
1022192,336,70
1022204,300,70
1022213,306,70
1022224,264,70
1022234,356,70
1022244,623,70
1022255,652,70
1022265,603,70
1022275,275,70
1022284,304,70
1022294,320,70
1022306,291,70
1022316,293,70
1022326,321,70
1022334,286,70
1022346,319,70
1022356,314,70
1022367,299,70
1022378,339,70
1022388,307,70
1022397,324,70
1022408,341,70
1022419,310,70
1022429,351,70
1022439,336,70
1022449,337,70
1022459,377,70
1022469,342,70
1022480,373,70
1022490,375,70
1022501,357,70
1022512,388,70
1022520,339,70
1022530,332,70
1022541,332,70
1022551,287,70
1022563,318,70
1022573,297,70
1022582,295,70
1022594,322,70
1022603,284,70
1022613,313,70
1022621,315,70
1022634,291,70
1022645,329,70
1022655,300,70
1022665,311,70
1022676,327,70
1022686,295,70
1022696,327,70
1022705,310,70
1022717,303,70
1022727,333,70
1022737,293,70
1022746,322,70
1022757,322,70
1022767,295,70
1022778,334,70
1022788,302,70
1022799,311,70
1022809,329,70
1022819,294,70
1022830,333,70
1022840,315,70
1022849,305,70
1022859,339,70
1022870,301,70
1022880,323,70
1022890,326,70
1022901,303,70
1022912,338,70
1022921,312,70
1022931,316,70
1022942,336,70
1022953,313,70
1022963,344,70
1022972,331,70
1022983,314,70
1022993,343,70
1023004,307,70
1023013,327,70
1023023,331,70
1023034,304,70
1023045,339,70
1023055,308,70
1023066,277,70
1023076,315,70
1023086,483,70
1023096,651,70
1023107,649,70
1023117,290,70
1023127,313,70
1023136,312,70
1023147,311,70
1023157,321,70
1023167,295,70
1023179,335,70
1023187,311,70
1023196,319,70
1023208,342,70
1023220,308,70
1023230,344,70
1023239,337,70
1023249,325,70
1023261,362,70
1023271,331,70
1023281,356,70
1023291,369,70
1023302,344,70
1023312,389,70
1023323,370,70
1023333,375,70
1023343,403,70
1023352,364,70
1023364,382,70
1023374,349,70
1023383,311,70
1023394,332,70
1023404,292,70
1023415,305,70
1023424,314,70
1023434,285,70
1023446,322,70
1023456,299,70
1023466,299,70
1023476,327,70
1023486,289,70
1023496,320,70
1023506,315,70
1023517,297,70
1023527,335,70
1023538,298,70
1023548,314,70
1023558,327,70
1023569,292,70
1023579,328,70
1023588,306,70
1023600,303,70
1023608,330,70
1023618,293,70
1023629,322,70
1023638,317,70
1023650,297,70
1023661,335,70
1023670,300,70
1023682,313,70
1023692,325,70
1023700,292,70
1023713,333,70
1023723,309,70
1023733,307,70
1023743,336,70
1023752,298,70
1023762,327,70
1023774,324,70
1023784,298,70
1023795,339,70
1023805,304,70
1023815,320,70
1023824,342,70
1023835,305,70
1023846,340,70
1023856,317,70
1023866,308,70
1023875,337,70
1023887,300,70
1023897,326,70
1023907,326,70
1023917,300,70
1023927,322,70
1023938,248,70
1023949,333,70
1023958,584,71
1023969,652,71
1023979,644,71
1023989,269,71
1024000,302,71
1024010,330,71
1024019,276,71
1024030,307,71
1024041,308,71
1024050,286,71
1024060,328,71
1024071,298,71
1024082,309,71
1024092,331,71
1024103,298,71
1024113,335,71
1024123,323,71
1024133,315,71
1024143,351,71
1024152,320,71
1024164,349,71
1024173,359,71
1024183,337,71
1024194,378,71
1024205,354,71
1024215,363,71
1024226,384,71
1024236,333,71
1024246,347,71
1024255,316,71
1024267,293,71
1024277,322,71
1024285,281,71
1024297,304,71
1024306,309,71
1024318,282,71
1024325,322,71
1024338,294,71
1024349,301,71
1024358,324,71
1024369,287,71
1024380,322,71
1024390,311,71
1024400,297,71
1024410,332,71
1024419,295,71
1024429,316,71
1024441,321,71
1024450,291,71
1024460,330,71
1024470,302,71
1024482,303,71
1024492,329,71
1024502,291,71
1024513,323,71
1024522,313,71
1024534,297,71
1024544,334,71
1024554,299,71
1024565,316,71
1024573,327,71
1024584,296,71
1024596,335,71
1024604,310,71
1024615,310,71
1024626,336,71
1024636,299,71
1024647,331,71
1024656,323,71
1024667,304,71
1024677,342,71
1024687,306,71
1024698,320,71
1024708,333,71
1024717,299,71
1024728,342,71
1024737,325,71
1024749,320,71
1024760,346,71
1024769,305,71
1024779,335,71
1024789,328,71
1024800,305,71
1024810,342,71
1024820,307,71
1024832,322,71
1024841,319,71
1024851,243,71
1024861,367,71
1024872,578,71
1024883,652,71
1024893,650,71
1024903,268,71
1024913,329,71
1024922,317,71
1024933,282,71
1024945,322,71
1024954,292,71
1024964,308,71
1024975,327,71
1024984,293,71
1024992,334,71
1025005,316,71
1025016,312,71
1025025,345,71
1025035,308,71
1025044,342,71
1025056,343,71
1025067,322,71
1025077,367,71
1025087,341,71
1025098,359,71
1025108,380,71
1025118,348,71
1025126,388,71
1025139,370,71
1025150,351,71
1025159,362,71
1025169,306,71
1025179,321,71
1025191,313,71
1025201,285,71
1025212,325,71
1025221,292,71
1025231,302,71
1025241,322,71
1025252,287,71
1025263,323,71
1025273,308,71
1025283,298,71
1025293,331,71
1025302,294,71
1025313,319,71
1025323,320,71
1025334,290,71
1025344,330,71
1025353,300,71
1025365,308,71
1025375,328,71
1025385,290,71
1025396,326,71
1025406,312,71
1025416,297,71
1025423,330,71
1025437,296,71
1025444,319,71
1025456,323,71
1025468,297,71
1025478,335,71
1025488,306,71
1025498,311,71
1025508,330,71
1025518,296,71
1025529,332,71
1025539,316,71
1025549,306,71
1025560,342,71
1025569,305,71
1025581,327,71
1025591,330,71
1025601,301,71
1025611,340,71
1025620,313,71
1025632,317,71
1025642,337,71
1025652,311,71
1025662,345,71
1025672,333,71
1025684,315,71
1025692,344,71
1025704,310,71
1025714,328,71
1025725,334,71
1025735,303,71
1025745,342,71
1025754,312,71
1025766,279,71
1025775,300,71
1025785,442,71
1025796,651,71
1025807,652,71
1025817,393,71
1025826,290,71
1025837,313,71
1025847,304,71
1025857,315,71
1025868,287,71
1025878,325,71
1025887,303,71
1025899,306,71
1025909,336,71
1025919,301,71
1025930,332,71
1025940,330,71
1025951,316,71
1025961,353,71
1025971,323,71
1025981,345,71
1025992,362,71
1026001,337,71
1026011,381,71
1026021,365,71
1026032,369,71
1026042,396,71
1026052,361,71
1026062,382,71
1026073,355,71
1026084,314,71
1026094,334,71
1026103,291,71
1026115,303,71
1026125,315,71
1026135,281,71
1026144,316,71
1026154,298,71
1026166,297,71
1026176,324,71
1026187,290,71
1026197,320,71
1026206,315,71
1026217,293,71
1026226,331,71
1026238,299,71
1026248,313,71
1026258,328,71
1026268,298,71
1026277,331,71
1026289,308,71
1026299,302,71
1026310,332,71
1026319,294,71
1026329,321,71
1026341,319,71
1026351,296,71
1026360,336,71
1026371,305,71
1026381,314,71
1026390,331,71
1026402,298,71
1026412,334,71
1026422,314,71
1026432,309,71
1026443,339,71
1026453,302,71
1026463,327,71
1026473,328,71
1026483,301,71
1026495,343,71
1026504,320,71
1026515,329,71
1026525,344,71
1026535,305,71
1026546,341,71
1026555,324,71
1026565,311,71
1026575,343,71
1026587,305,71
1026597,328,71
1026607,317,71
1026618,252,71
1026627,362,71
1026637,559,71
1026647,651,71
1026659,632,71
1026669,235,71
1026678,332,71
1026689,315,71
1026699,291,71
1026710,328,71
1026720,291,71
1026731,317,71
1026741,324,71
1026751,298,71
1026762,339,71
1026771,311,71
1026781,319,71
1026791,344,71
1026802,311,71
1026813,348,71
1026823,339,71
1026833,333,71
1026843,374,71
1026854,343,71
1026864,371,71
1026874,379,71
1026885,356,71
1026894,397,71
1026904,365,71
1026915,353,71
1026925,356,71
1026935,298,71
1026945,322,71
1026956,304,71
1026966,288,71
1026976,322,71
1026988,285,71
1026997,305,71
1027007,313,71
1027018,284,71
1027025,324,71
1027039,299,71
1027049,301,71
1027059,326,71
1027069,289,71
1027078,323,71
1027090,313,71
1027100,297,71
1027109,331,71
1027121,296,71
1027130,314,71
1027140,322,71
1027152,291,71
1027160,329,71
1027171,305,71
1027181,305,71
1027192,331,71
1027203,292,71
1027213,324,71
1027222,317,71
1027233,300,71
1027242,336,71
1027254,301,71
1027263,319,71
1027273,331,71
1027285,297,71
1027294,336,71
1027306,313,71
1027316,312,71
1027326,339,71
1027336,301,71
1027346,328,71
1027355,326,71
1027367,303,71
1027376,349,71
1027387,319,71
1027396,331,71
1027408,340,71
1027417,305,71
1027427,340,71
1027438,318,71
1027449,313,71
1027458,341,71
1027469,302,71
1027480,331,71
1027489,295,71
1027499,256,71
1027510,446,71
1027520,639,71
1027530,652,71
1027541,537,71
1027551,240,71
1027561,347,71
1027571,298,71
1027582,291,71
1027593,323,71
1027603,286,71
1027612,317,71
1027623,316,71
1027633,297,71
1027644,336,71
1027654,307,71
1027665,321,71
1027673,339,71
1027685,307,71
1027695,349,71
1027705,334,71
1027716,332,71
1027725,368,71
1027737,336,71
1027746,367,71
1027756,370,71
1027766,349,71
1027777,389,71
1027788,355,71
1027798,351,71
1027808,348,71
1027818,297,71
1027828,324,71
1027839,302,71
1027849,290,71
1027858,322,71
1027870,286,71
1027880,313,71
1027891,315,71
1027901,291,71
1027911,330,71
1027921,302,71
1027932,308,71
1027942,329,71
1027952,293,71
1027961,329,71
1027973,314,71
1027983,303,71
1027994,336,71
1028004,297,71
1028014,321,71
1028023,323,71
1028033,298,71
1028045,334,71
1028055,306,71
1028061,312,71
1028074,333,71
1028082,296,71
1028094,331,71
1028104,316,71
1028116,304,71
1028127,337,71
1028136,301,71
1028147,324,71
1028157,329,71
1028167,300,71
1028176,339,71
1028188,313,71
1028197,317,71
1028209,336,71
1028219,303,71
1028228,335,71
1028239,324,71
1028249,319,71
1028260,352,71
1028270,314,71
1028280,329,71
1028291,335,71
1028301,304,71
1028311,341,71
1028321,314,71
1028332,316,71
1028342,340,71
1028352,290,71
1028361,281,71
1028371,331,71
1028383,540,70
1028392,652,70
1028402,651,70
1028412,296,70
1028425,322,70
1028434,297,70
1028444,317,70
1028455,298,70
1028465,298,70
1028476,326,70
1028486,293,70
1028496,325,70
1028507,317,70
1028515,303,70
1028527,341,70
1028537,306,70
1028546,328,70
1028558,342,70
1028568,314,70
1028577,355,70
1028589,335,70
1028599,342,70
1028609,376,70
1028619,342,70
1028629,374,70
1028640,372,70
1028648,354,70
1028659,379,70
1028669,325,70
1028680,321,70
1028691,324,70
1028700,283,70
1028712,317,70
1028722,292,70
1028732,288,70
1028743,320,70
1028751,282,70
1028763,311,70
1028773,309,70
1028783,289,70
1028793,326,70
1028803,294,70
1028814,309,70
1028825,322,70
1028834,288,70
1028845,325,70
1028855,304,70
1028865,299,70
1028876,328,70
1028886,292,70
1028896,318,70
1028906,316,70
1028917,289,70
1028927,329,70
1028937,298,70
1028947,308,70
1028958,325,70
1028967,290,70
1028978,327,70
1028989,309,70
1028999,300,70
1029010,333,70
1029018,296,70
1029030,322,70
1029040,319,70
1029049,298,70
1029059,331,70
1029069,313,70
1029080,325,70
1029092,339,70
1029101,302,70
1029111,337,70
1029121,319,70
1029132,309,70
1029143,337,70
1029153,302,70
1029163,326,70
1029173,325,70
1029183,279,70
1029194,292,70
1029205,387,70
1029213,610,69
1029224,652,69
1029235,477,69
1029246,262,69
1029254,326,69
1029265,294,69
1029276,323,69
1029284,294,69
1029296,315,69
1029307,322,69
1029318,298,69
1029328,334,69
1029337,310,69
1029346,320,69
1029359,343,69
1029369,310,69
1029379,349,69
1029388,340,69
1029398,331,69
1029408,371,69
1029419,339,69
1029430,368,69
1029440,381,69
1029450,355,69
1029461,396,69
1029471,374,69
1029482,370,69
1029492,372,69
1029502,315,69
1029512,331,69
1029522,305,69
1029532,288,69
1029543,322,69
1029553,284,69
1029563,306,69
1029574,314,69
1029584,290,69
1029595,326,69
1029605,299,69
1029614,303,69
1029625,330,69
1029634,294,69
1029646,328,69
1029656,316,69
1029665,298,69
1029676,333,69
1029686,297,69
1029696,316,69
1029706,326,69
1029718,293,69
1029728,332,69
1029738,308,69
1029747,307,69
1029759,332,69
1029769,293,69
1029779,328,69
1029789,320,69
1029799,300,69
1029810,333,69
1029820,304,69
1029830,316,69
1029840,332,69
1029851,309,69
1029862,345,69
1029870,318,69
1029881,312,69
1029891,339,69
1029902,303,69
1029913,332,69
1029922,325,69
1029932,303,69
1029942,340,69
1029954,292,69
1029963,271,69
1029973,364,69
1029984,556,69
1029995,652,69
1030004,584,69
1030015,232,69
1030025,338,69
1030036,296,69
1030046,312,69
1030057,313,69
1030066,294,69
1030076,332,69
1030086,302,69
1030097,318,69
1030108,334,69
1030117,304,69
1030129,343,69
1030139,327,69
1030149,325,69
1030155,358,69
1030170,324,69
1030180,359,69
1030189,363,69
1030200,344,69
1030210,386,69
1030220,358,69
1030230,374,69
1030240,393,69
1030251,352,69
1030262,371,69
1030272,330,69
1030283,305,69
1030293,325,69
1030302,284,69
1030313,307,69
1030322,304,69
1030333,281,69
1030344,320,69
1030354,290,69
1030365,302,69
1030374,321,69
1030385,287,69
1030395,323,69
1030406,307,69
1030416,298,69
1030426,329,69
1030436,293,69
1030446,318,69
1030456,317,69
1030468,294,69
1030476,330,69
1030487,300,69
1030498,308,69
1030508,328,69
1030519,291,69
1030527,326,69
1030538,311,69
1030550,301,69
1030558,334,69
1030569,297,69
1030579,321,69
1030590,321,69
1030601,298,69
1030611,332,69
1030620,306,69
1030630,322,69
1030640,342,69
1030650,303,69
1030662,334,69
1030672,320,69
1030683,307,69
1030692,338,69
1030703,301,69
1030714,322,69
1030724,326,69
1030734,293,69
1030743,288,69
1030753,283,69
1030765,497,69
1030775,652,70
1030786,651,70
1030795,349,70
1030806,289,70
1030816,308,70
1030825,318,70
1030837,286,70
1030847,308,70
1030856,316,70
1030868,290,70
1030878,330,70
1030887,305,70
1030898,309,70
1030907,335,70
1030919,302,70
1030929,337,70
1030939,329,70
1030949,319,70
1030960,358,70
1030970,327,70
1030981,352,70
1030990,365,70
1031001,340,70
1031010,383,70
1031021,359,70
1031031,361,70
1031041,375,70
1031052,319,70
1031062,333,70
1031071,313,70
1031083,288,70
1031092,322,70
1031104,286,70
1031113,305,70
1031124,316,70
1031135,287,70
1031144,326,70
1031154,303,70
1031165,303,70
1031175,330,70
1031185,291,70
1031196,322,70
1031205,316,70
1031217,296,70
1031227,333,70
1031237,300,70
1031247,314,70
1031255,325,70
1031268,294,70
1031276,330,70
1031289,307,70
1031298,306,70
1031309,334,70
1031319,296,70
1031329,326,70
1031340,322,70
1031349,299,70
1031360,338,70
1031370,304,70
1031381,319,70
1031391,333,70
1031400,301,70
1031412,339,70
1031422,314,70
1031432,311,70
1031441,340,70
1031451,305,70
1031462,342,70
1031473,337,70
1031483,312,70
1031494,345,70
1031504,313,70
1031513,325,70
1031524,338,70
1031534,302,70
1031545,338,70
1031555,317,70
1031566,303,70
1031575,289,70
1031586,292,70
1031596,536,70
1031607,652,70
1031617,651,70
1031627,343,70
1031637,287,70
1031647,319,70
1031658,313,70
1031668,280,70
1031678,320,70
1031688,303,70
1031699,297,70
1031709,330,70
1031719,296,70
1031729,325,70
1031740,327,70
1031749,303,70
1031760,345,70
1031771,318,70
1031780,331,70
1031792,354,70
1031801,323,70
1031810,364,70
1031822,355,70
1031833,348,70
1031843,384,70
1031853,350,70
1031863,374,70
1031873,368,70
1031883,324,70
1031893,345,70
1031903,303,70
1031915,303,70
1031925,320,70
1031934,285,70
1031944,320,70
1031955,306,70
1031965,296,70
1031976,330,70
1031985,293,70
1031996,317,70
1032007,322,70
1032018,294,70
1032027,332,70
1032037,305,70
1032047,308,70
1032058,329,70
1032069,293,70
1032079,326,70
1032089,310,70
1032098,298,70
1032110,333,70
1032120,295,70
1032130,317,70
1032140,323,70
1032148,293,70
1032161,333,70
1032171,305,70
1032180,309,70
1032192,332,70
1032201,297,70
1032211,328,70
1032222,319,70
1032233,304,70
1032243,337,70
1032253,301,70
1032263,320,70
1032274,331,70
1032284,300,70
1032294,338,70
1032305,312,70
1032315,313,70
1032325,340,70
1032334,302,70
1032344,341,70
1032356,332,70
1032366,313,70
1032376,343,70
1032386,308,70
1032396,326,70
1032408,335,70
1032417,300,70
1032428,338,70
1032438,313,70
1032449,308,70
1032459,292,70
1032469,263,70
1032479,489,70
1032490,651,70
1032499,652,70
1032510,396,70
1032519,263,70
1032529,325,70
1032541,307,70
1032551,279,70
1032562,320,70
1032572,299,70
1032580,301,70
1032592,330,70
1032603,292,70
1032613,325,70
1032623,321,70
1032632,304,70
1032644,342,70
1032652,315,70
1032664,335,70
1032671,349,70
1032684,322,70
1032694,364,70
1032704,348,70
1032715,352,70
1032726,381,70
1032735,348,70
1032746,378,70
1032757,367,70
1032765,329,70
1032775,347,70
1032784,300,70
1032798,303,70
1032808,313,70
1032816,282,70
1032829,316,70
1032838,296,70
1032848,296,70
1032859,325,70
1032869,289,70
1032879,318,70
1032888,315,70
1032899,294,70
1032910,330,70
1032919,299,70
1032929,311,70
1032941,328,70
1032950,292,70
1032961,326,70
1032971,307,70
1032981,300,70
1032993,333,70
1033003,294,70
1033013,317,70
1033022,319,70
1033032,294,70
1033044,331,70
1033054,301,70
1033064,310,70
1033074,330,70
1033084,296,70
1033095,329,70
1033104,313,70
1033116,304,70
1033126,336,70
1033135,298,70
1033147,325,70
1033157,329,70
1033166,298,70
1033176,348,70
1033188,321,70
1033197,326,70
1033205,341,70
1033217,305,70
1033228,337,70
1033239,323,70
1033249,310,70
1033260,343,70
1033268,306,70
1033278,327,70
1033290,297,70
1033301,276,70
1033311,492,70
1033320,647,71
1033330,650,71
1033341,363,71
1033351,257,71
1033362,346,71
1033372,307,71
1033382,298,71
1033392,336,71
1033402,303,71
1033413,324,71
1033423,331,71
1033433,307,71
1033443,347,71
1033455,321,71
1033465,329,71
1033475,355,71
1033485,322,71
1033496,358,71
1033505,354,71
1033515,344,71
1033526,385,71
1033536,354,71
1033547,377,71
1033556,389,71
1033567,362,71
1033577,401,71
1033588,364,71
1033598,343,71
1033607,347,71
1033617,294,71
1033629,320,71
1033638,306,71
1033648,288,71
1033658,322,71
1033669,287,71
1033680,309,71
1033691,318,71
1033701,288,71
1033711,327,71
1033720,302,71
1033731,304,71
1033740,330,71
1033752,292,71
1033763,322,71
1033772,314,71
1033782,296,71
1033792,330,71
1033803,295,71
1033813,312,71
1033824,321,71
1033833,291,71
1033843,330,71
1033854,305,71
1033865,303,71
1033874,331,71
1033885,295,71
1033896,325,71
1033905,318,71
1033916,299,71
1033926,335,71
1033936,302,71
1033948,317,71
1033956,330,71
1033966,295,71
1033978,334,71
1033987,311,71
1033998,308,71
1034008,348,71
1034018,310,71
1034030,338,71
1034039,329,71
1034050,307,71
1034060,342,71
1034070,308,71
1034081,321,71
1034090,334,71
1034100,299,71
1034110,333,71
1034121,274,71
1034132,278,71
1034141,496,71
1034153,651,71
1034163,652,71
1034173,408,71
1034183,261,71
1034193,348,71
1034203,287,71
1034214,302,71
1034223,318,71
1034233,285,71
1034245,325,71
1034255,308,71
1034266,304,71
1034274,335,71
1034284,300,71
1034296,330,71
1034307,332,71
1034317,311,71
1034326,353,71
1034336,325,71
1034346,340,71
1034357,363,71
1034367,333,71
1034378,372,71
1034389,360,71
1034399,355,71
1034407,387,71
1034418,344,71
1034430,352,71
1034438,334,71
1034450,297,71
1034460,325,71
1034469,292,71
1034481,300,71
1034490,317,71
1034501,282,71
1034511,318,71
1034521,303,71
1034533,294,71
1034542,327,71
1034551,290,71
1034563,315,71
1034571,318,71
1034584,292,71
1034593,329,71
1034604,299,71
1034614,304,71
1034625,324,71
1034635,288,71
1034645,323,71
1034655,309,71
1034666,297,71
1034676,330,71
1034685,294,71
1034696,317,71
1034706,321,71
1034717,292,71
1034728,332,71
1034738,302,71
1034748,308,71
1034758,332,71
1034768,295,71
1034779,330,71
1034789,317,71
1034799,305,71
1034808,338,71
1034818,299,71
1034830,324,71
1034839,328,71
1034850,305,71
1034860,349,71
1034870,320,71
1034880,320,71
1034891,340,71
1034902,303,71
1034912,335,71
1034922,322,71
1034931,305,71
1034943,340,71
1034953,304,71
1034962,305,71
1034974,275,71
1034984,344,71
1034994,612,71
1035004,652,71
1035014,617,71
1035025,283,71
1035035,304,71
1035044,321,71
1035056,301,71
1035066,287,71
1035075,324,71
1035087,291,71
1035097,313,71
1035106,323,71
1035116,296,71
1035127,337,71
1035138,313,71
1035148,317,71
1035158,344,71
1035169,311,71
1035179,346,71
1035190,343,71
1035200,330,71
1035210,370,71
1035220,341,71
1035229,363,71
1035240,376,71
1035250,348,71
1035262,384,71
1035272,349,71
1035282,329,71
1035292,340,71
1035302,291,71
1035312,316,71
1035323,307,71
1035333,289,71
1035343,325,71
1035354,292,71
1035361,309,71
1035373,322,71
1035384,290,71
1035394,329,71
1035405,306,71
1035414,303,71
1035424,331,71
1035435,293,71
1035446,322,71
1035457,317,71
1035465,296,71
1035477,333,71
1035487,297,71
1035497,312,71
1035507,324,71
1035518,292,71
1035528,330,71
1035539,308,71
1035548,304,71
1035556,334,71
1035569,295,71
1035578,324,71
1035589,320,71
1035599,297,71
1035610,337,71
1035620,305,71
1035630,318,71
1035640,334,71
1035649,299,71
1035662,336,71
1035672,315,71
1035682,305,71
1035691,340,71
1035703,300,71
1035712,335,71
1035723,336,71
1035733,312,71
1035743,344,71
1035754,312,71
1035762,320,71
1035774,336,71
1035782,300,71
1035794,334,71
1035804,316,71
1035815,307,71
1035825,312,71
1035836,250,71
1035845,415,71
1035856,636,72
1035865,652,72
1035876,533,72
1035887,242,72
1035897,328,72
1035908,318,72
1035918,280,72
1035928,319,72
1035938,305,72
1035949,297,72
1035958,331,72
1035969,297,72
1035979,325,72
1035990,328,72
1035999,303,72
1036009,344,72
1036020,318,72
1036030,330,72
1036041,352,72
1036051,325,72
1036062,366,72
1036072,353,72
1036082,347,72
1036093,384,72
1036103,350,72
1036112,375,72
1036124,374,72
1036134,330,72
1036144,350,72
1036154,306,72
1036164,300,72
1036174,316,72
1036184,279,72
1036194,312,72
1036205,298,72
1036215,289,72
1036226,323,72
1036236,289,72
1036247,312,72
1036257,316,72
1036267,288,72
1036277,327,72
1036287,299,72
1036296,305,72
1036307,326,72
1036317,289,72
1036328,323,72
1036339,307,72
1036350,295,72
1036360,329,72
1036370,293,72
1036379,313,72
1036389,319,72
1036399,292,72
1036410,329,72
1036421,302,72
1036430,307,72
1036438,331,72
1036450,291,72
1036462,326,72
1036473,315,72
1036482,299,72
1036493,336,72
1036503,297,72
1036513,327,72
1036523,336,72
1036534,305,72
1036545,339,72
1036554,312,72
1036564,316,72
1036575,334,72
1036585,299,72
1036595,332,72
1036605,320,72
1036615,302,72
1036627,305,72
1036637,274,72
1036646,471,72
1036656,650,72
1036667,648,72
1036678,350,72
1036687,266,72
1036697,322,72
1036709,320,72
1036718,290,72
1036729,324,72
1036739,317,72
1036748,303,72
1036759,340,72
1036769,309,72
1036779,326,72
1036788,342,72
1036800,315,72
1036812,353,72
1036821,335,72
1036831,339,72
1036841,370,72
1036853,340,72
1036862,377,72
1036873,374,72
1036882,361,72
1036894,400,72
1036904,368,72
1036913,389,72
1036924,386,72
1036934,332,72
1036942,348,72
1036955,311,72
1036966,300,72
1036976,322,72
1036984,284,72
1036996,314,72
1037007,309,72
1037016,291,72
1037027,327,72
1037034,295,72
1037047,313,72
1037057,325,72
1037068,294,72
1037079,330,72
1037088,308,72
1037097,306,72
1037109,332,72
1037118,293,72
1037129,321,72
1037138,317,72
1037149,297,72
1037161,331,72
1037169,299,72
1037180,312,72
1037188,326,72
1037201,294,72
1037212,331,72
1037221,311,72
1037232,306,72
1037242,333,72
1037251,298,72
1037263,327,72
1037273,320,72
1037282,307,72
1037294,348,72
1037304,314,72
1037314,320,72
1037322,333,72
1037334,300,72
1037344,335,72
1037354,315,72
1037364,306,72
1037376,337,72
1037385,298,72
1037396,302,72
1037407,270,72
1037416,364,72
1037428,632,73
1037437,652,73
1037447,543,73
1037458,263,73
1037468,305,73
1037478,321,73
1037489,299,73
1037499,295,73
1037509,328,73
1037519,292,73
1037530,319,73
1037539,322,73
1037550,299,73
1037560,339,73
1037571,311,73
1037581,321,73
1037592,344,73
1037601,312,73
1037612,352,73
1037622,341,73
1037631,337,73
1037642,375,73
1037652,343,73
1037664,370,73
1037673,377,73
1037683,352,73
1037695,385,73
1037704,339,73
1037715,327,73
1037724,334,73
1037734,289,73
1037746,320,73
1037755,303,73
1037765,291,73
1037773,325,73
1037785,290,73
1037797,313,73
1037807,317,73
1037817,291,73
1037828,331,73
1037837,301,73
1037848,309,73
1037857,331,73
1037867,292,73
1037877,328,73
1037888,313,73
1037898,300,73
1037910,333,73
1037919,295,73
1037930,319,73
1037940,323,73
1037950,295,73
1037960,333,73
1037972,306,73
1037982,311,73
1037992,332,73
1038001,295,73
1038012,331,73
1038021,316,73
1038033,304,73
1038043,338,73
1038053,300,73
1038064,322,73
1038073,328,73
1038084,310,73
1038094,345,73
1038103,319,73
1038115,317,73
1038124,339,73
1038135,301,73
1038146,332,73
1038155,321,73
1038165,303,73
1038173,337,73
1038186,300,73
1038197,285,73
1038208,281,73
1038217,418,73
1038228,651,72
1038237,653,72
1038249,473,72
1038258,284,72
1038268,308,72
1038279,312,72
1038289,301,72
1038298,287,72
1038309,325,72
1038320,292,72
1038330,313,72
1038340,323,72
1038349,296,72
1038362,337,72
1038371,314,72
1038381,316,72
1038391,344,72
1038401,311,72
1038411,347,72
1038423,343,72
1038434,332,72
1038443,373,72
1038454,343,72
1038463,362,72
1038473,376,72
1038483,346,72
1038495,377,72
1038505,337,72
1038515,319,72
1038525,332,72
1038536,287,72
1038546,312,72
1038557,305,72
1038567,286,72
1038577,324,72
1038586,289,72
1038598,307,72
1038608,319,72
1038617,288,72
1038628,326,72
1038638,303,72
1038648,300,72
1038659,327,72
1038669,289,72
1038679,321,72
1038689,314,72
1038700,294,72
1038710,331,72
1038720,297,72
1038730,311,72
1038740,323,72
1038750,290,72
1038761,328,72
1038771,305,72
1038782,302,72
1038792,332,72
1038802,294,72
1038812,323,72
1038823,319,72
1038833,299,72
1038844,334,72
1038854,302,72
1038864,315,72
1038875,327,72
1038884,298,72
1038896,330,72
1038906,318,72
1038916,318,72
1038925,347,72
1038935,306,72
1038947,330,72
1038957,325,72
1038967,303,72
1038977,338,72
1038986,304,72
1038998,317,72
1039004,332,72
1039018,280,72
1039028,277,72
1039039,342,72
1039049,566,72
1039059,652,72
1039069,632,72
1039079,268,72
1039090,325,72
1039100,293,72
1039109,315,72
1039121,288,72
1039131,299,72
1039140,318,72
1039151,287,72
1039161,323,72
1039172,306,72
1039183,302,72
1039192,336,72
1039201,302,72
1039214,329,72
1039222,331,72
1039234,313,72
1039245,356,72
1039253,331,72
1039263,346,72
1039274,368,72
1039284,338,72
1039296,378,72
1039305,367,72
1039316,354,72
1039325,370,72
1039336,317,72
1039347,323,72
1039357,312,72
1039368,281,72
1039378,318,72
1039388,288,72
1039398,296,72
1039408,319,72
1039418,282,72
1039428,317,72
1039438,304,72
1039450,295,72
1039459,327,72
1039470,292,72
1039481,315,72
1039489,316,72
1039500,290,72
1039511,328,72
1039521,301,72
1039532,308,72
1039541,324,72
1039551,290,72
1039563,324,72
1039572,307,72
1039583,295,72
1039593,331,72
1039603,296,72
1039614,318,72
1039624,320,72
1039634,293,72
1039645,331,72
1039654,304,72
1039664,309,72
1039674,332,72
1039685,296,72
1039695,328,72
1039705,316,72
1039716,304,72
1039726,340,72
1039737,300,72
1039747,331,72
1039757,340,72
1039768,309,72
1039778,344,72
1039788,314,72
1039797,323,72
1039808,340,72
1039818,306,72
1039828,335,72
1039839,323,72
1039849,309,72
1039860,312,72
1039870,264,72
1039881,442,72
1039891,647,72
1039901,651,72
1039911,422,72
1039922,253,72
1039932,327,72
1039941,324,72
1039952,288,72
1039963,324,72
1039972,315,72
1039983,303,72
1039993,340,72
1040004,307,72
1040014,330,72
1040025,340,72
1040035,313,72
1040045,354,72
1040055,333,72
1040066,337,72
1040075,366,72
1040085,336,72
1040095,373,72
1040106,369,72
1040117,356,72
1040126,396,72
1040135,366,72
1040148,384,72
1040158,386,72
1040168,334,72
1040177,349,72
1040189,309,72
1040199,301,72
1040209,322,72
1040218,284,72
1040230,313,72
1040238,305,72
1040250,289,72
1040260,326,72
1040270,292,72
1040281,311,72
1040292,322,72
1040301,290,72
1040311,329,72
1040321,304,72
1040331,303,72
1040342,330,72
1040353,292,72
1040363,321,72
1040372,314,72
1040383,295,72
1040393,330,72
1040403,296,72
1040413,311,72
1040423,322,72
1040435,290,72
1040444,329,72
1040456,305,72
1040466,302,72
1040475,331,72
1040485,295,72
1040497,323,72
1040506,319,72
1040517,298,72
1040528,336,72
1040538,303,72
1040548,314,72
1040558,331,72
1040568,295,72
1040578,339,72
1040589,325,72
1040600,319,72
1040610,345,72
1040619,304,72
1040630,331,72
1040640,327,72
1040651,304,72
1040660,341,72
1040670,307,72
1040681,320,72
1040692,319,72
1040701,243,72
1040712,362,72
1040722,575,72
1040732,652,72
1040743,647,72
1040754,254,72
1040763,327,72
1040773,320,72
1040783,283,72
1040793,326,72
1040804,294,72
1040814,309,72
1040824,327,72
1040836,295,72
1040845,333,72
1040856,315,72
1040866,312,72
1040875,345,72
1040886,311,72
1040895,339,72
1040906,343,72
1040918,324,72
1040927,366,72
1040937,342,72
1040947,356,72
1040958,377,72
1040968,346,72
1040979,385,72
1040988,367,72
1040999,346,72
1041010,359,72
1041021,305,72
1041031,319,72
1041041,313,72
1041051,286,72
1041061,323,72
1041070,294,72
1041082,303,72
1041091,323,72
1041102,287,72
1041112,324,72
1041122,308,72
1041132,300,72
1041143,332,72
1041153,294,72
1041163,319,72
1041173,320,72
1041185,295,72
1041195,332,72
1041204,301,72
1041214,308,72
1041224,329,72
1041235,290,72
1041246,327,72
1041256,311,72
1041266,301,72
1041276,334,72
1041288,297,72
1041298,321,72
1041308,325,72
1041318,297,72
1041327,336,72
1041339,307,72
1041348,314,72
1041358,336,72
1041369,299,72
1041379,335,72
1041390,320,72
1041400,307,72
1041409,341,72
1041421,305,72
1041431,325,72
1041441,340,72
1041451,312,72
1041461,350,72
1041471,318,72
1041481,320,72
1041492,342,72
1041503,304,72
1041512,338,72
1041522,323,72
1041532,309,72
1041542,343,72
1041554,275,72
1041565,276,72
1041573,432,72
1041585,632,72
1041595,653,72
1041604,519,72
1041614,255,72
1041624,348,72
1041636,285,72
1041646,315,72
1041656,305,72
1041667,294,72
1041676,331,72
1041687,297,72
1041698,319,72
1041708,328,72
1041718,300,72
1041727,341,72
1041739,317,72
1041749,322,72
1041759,350,72
1041770,316,72
1041779,355,72
1041790,350,72
1041800,339,72
1041809,380,72
1041820,348,72
1041831,370,72
1041841,381,72
1041852,347,72
1041862,369,72
1041872,327,72
1041882,312,72
1041892,328,72
1041903,285,72
1041912,316,72
1041922,307,72
1041934,289,72
1041943,328,72
1041954,293,72
1041964,314,72
1041975,323,72
1041985,292,72
1041994,331,72
1042004,307,72
1042016,307,72
1042025,332,72
1042036,295,72
1042046,323,72
1042056,317,72
1042066,298,72
1042077,334,72
1042087,299,72
1042098,315,72
1042108,327,72
1042119,294,72
1042128,332,72
1042138,308,72
1042149,306,72
1042158,333,72
1042170,297,72
1042179,329,72
1042190,322,72
1042200,300,72
1042211,338,72
1042221,305,72
1042231,322,72
1042242,332,72
1042252,300,72
1042262,340,72
1042272,315,72
1042282,315,72
1042292,338,72
1042304,303,72
1042313,333,72
1042323,333,72
1042334,315,72
1042344,351,72
1042355,312,72
1042365,324,72
1042375,336,72
1042385,299,72
1042395,338,72
1042405,317,72
1042415,311,72
1042426,338,72
1042437,270,72
1042447,279,72
1042457,418,72
1042467,618,72
1042478,652,72
1042488,507,72
1042498,255,72
1042507,343,72
1042519,279,72
1042529,319,72
1042538,300,72
1042548,298,72
1042559,329,72
1042571,291,72
1042580,324,72
1042591,325,72
1042601,304,72
1042611,342,72
1042621,312,72
1042632,327,72
1042642,348,72
1042653,317,72
1042662,358,72
1042672,344,72
1042682,344,72
1042692,379,72
1042704,346,72
1042713,376,72
1042723,378,72
1042733,351,72
1042745,374,72
1042755,321,72
1042765,314,72
1042774,321,72
1042786,282,72
1042796,314,72
1042806,296,72
1042816,289,72
1042826,320,72
1042838,284,72
1042847,310,72
1042857,312,72
1042867,287,72
1042878,326,72
1042889,294,72
1042897,305,72
1042909,324,72
1042919,289,72
1042928,322,72
1042939,304,72
1042949,298,72
1042959,329,72
1042971,291,72
1042980,317,72
1042988,319,72
1043001,291,72
1043012,330,72
1043022,300,72
1043032,311,72
1043043,329,72
1043053,295,72
1043063,330,72
1043073,313,72
1043083,304,72
1043093,337,72
1043104,299,72
1043114,325,72
1043125,325,72
1043135,303,72
1043145,338,72
1043155,313,72
1043165,328,72
1043175,345,72
1043186,309,72
1043195,340,72
1043206,322,72
1043217,312,72
1043227,344,72
1043238,305,72
1043248,328,72
1043257,331,72
1043267,292,72
1043278,293,72
1043289,339,72
1043298,568,72
1043310,652,72
1043320,585,72
1043330,260,72
1043340,317,72
1043350,303,72
1043360,324,72
1043371,292,72
1043381,316,72
1043391,322,72
1043401,298,72
1043413,336,72
1043423,312,72
1043432,319,72
1043441,344,72
1043452,310,72
1043464,346,72
1043473,340,72
1043483,331,72
1043493,369,72
1043505,340,72
1043515,367,72
1043525,376,72
1043534,351,72
1043546,394,72
1043556,370,72
1043566,370,72
1043575,376,72
1043586,319,72
1043596,334,72
1043606,311,72
1043617,290,72
1043627,322,72
1043637,285,72
1043649,307,72
1043658,314,72
1043667,287,72
1043675,326,72
1043688,300,72
1043699,304,72
1043709,329,72
1043720,292,72
1043731,325,72
1043740,313,72
1043750,297,72
1043761,332,72
1043771,295,72
1043781,313,72
1043792,320,72
1043802,290,72
1043809,329,72
1043822,303,72
1043833,303,72
1043842,330,72
1043854,290,72
1043864,324,72
1043873,314,72
1043883,297,72
1043893,333,72
1043904,299,72
1043915,318,72
1043925,327,72
1043935,296,72
1043946,334,72
1043956,310,72
1043967,308,72
1043977,336,72
1043987,296,72
1043998,333,72
1044007,332,72
1044017,313,72
1044027,345,72
1044038,305,72
1044049,324,72
1044057,332,72
1044069,299,72
1044079,336,72
1044088,312,72
1044099,310,72
1044109,321,72
1044119,243,72
1044129,357,72
1044141,579,72
1044150,652,72
1044162,640,72
1044171,249,72
1044182,318,72
1044191,321,72
1044202,277,72
1044212,319,72
1044221,296,72
1044234,297,72
1044243,327,72
1044252,290,72
1044262,324,72
1044275,319,72
1044285,303,72
1044295,343,72
1044305,311,72
1044315,330,72
1044326,345,72
1044336,318,72
1044346,362,72
1044355,344,72
1044366,347,72
1044377,377,72
1044387,343,72
1044398,376,72
1044406,369,72
1044418,339,72
1044428,356,72
1044438,305,72
1044449,310,72
1044458,316,72
1044468,282,72
1044478,317,72
1044489,296,72
1044497,293,72
1044510,323,72
1044519,286,72
1044531,316,72
1044541,311,72
1044549,292,72
1044561,330,72
1044572,295,72
1044583,311,72
1044591,325,72
1044603,290,72
1044613,328,72
1044622,306,72
1044634,300,72
1044643,332,72
1044654,292,72
1044664,320,72
1044674,316,72
1044684,295,72
1044695,332,72
1044706,299,72
1044716,313,72
1044726,327,72
1044736,293,72
1044745,331,72
1044755,310,72
1044763,305,72
1044777,335,72
1044788,298,72
1044796,326,72
1044808,321,72
1044819,300,72
1044828,338,72
1044838,305,72
1044850,329,72
1044860,342,72
1044870,308,72
1044880,340,72
1044889,318,72
1044901,313,72
1044910,341,72
1044921,302,72
1044931,329,72
1044941,326,72
1044951,300,72
1044962,299,72
1044972,276,72
1044983,486,72
1044993,652,72
1045003,652,72
1045010,398,72
1045023,280,72
1045034,317,72
1045044,322,72
1045055,286,72
1045064,315,72
1045075,315,72
1045085,295,72
1045095,334,72
1045106,304,72
1045114,318,72
1045127,337,72
1045137,304,72
1045147,343,72
1045156,330,72
1045168,326,72
1045177,361,72
1045188,328,72
1045197,359,72
1045208,362,72
1045218,344,72
1045228,388,72
1045239,358,72
1045248,370,72
1045257,380,72
1045270,327,72
1045279,345,72
1045289,314,72
1045297,297,72
1045311,324,72
1045321,285,72
1045331,310,72
1045342,312,72
1045351,287,72
1045362,326,72
1045372,296,72
1045383,307,72
1045394,326,72
1045404,290,72
1045413,326,72
1045423,310,72
1045435,300,72
1045444,332,72
1045454,292,72
1045464,317,72
1045476,321,72
1045485,294,72
1045496,329,72
1045506,302,72
1045515,309,72
1045526,327,72
1045536,294,72
1045547,328,72
1045557,312,72
1045568,303,72
1045575,335,72
1045587,298,72
1045598,322,72
1045608,324,72
1045618,299,72
1045627,338,72
1045639,307,72
1045650,313,72
1045660,336,72
1045669,297,72
1045681,337,72
1045690,329,72
1045702,316,72
1045711,349,72
1045721,307,72
1045731,328,72
1045742,330,72
1045753,303,72
1045763,340,72
1045773,309,72
1045783,316,72
1045793,321,72
1045804,250,72
1045814,367,72
1045824,581,71
1045835,652,71
1045845,619,71
1045854,236,71
1045865,326,71
1045873,322,71
1045885,285,71
1045895,329,71
1045907,302,71
1045917,307,71
1045927,332,71
1045936,298,71
1045948,333,71
1045957,324,71
1045968,313,71
1045978,349,71
1045989,316,71
1045999,342,71
1046010,350,71
1046020,327,71
1046030,372,71
1046039,350,71
1046049,360,71
1046061,386,71
1046070,353,71
1046080,394,71
1046090,375,71
1046101,345,71
1046111,357,71
1046122,303,71
1046132,312,71
1046142,313,71
1046153,283,71
1046163,319,71
1046174,292,71
1046184,297,71
1046193,321,71
1046203,285,71
1046215,320,71
1046223,311,71
1046235,297,71
1046245,331,71
1046255,298,71
1046265,317,71
1046276,321,71
1046286,294,71
1046295,333,71
1046307,305,71
1046317,307,71
1046327,331,71
1046337,294,71
1046348,326,71
1046357,316,71
1046369,300,71
1046379,335,71
1046389,299,71
1046399,319,71
1046409,326,71
1046420,297,71
1046430,335,71
1046440,307,71
1046451,310,71
1046461,336,71
1046470,296,71
1046482,339,71
1046491,330,71
1046502,314,71
1046511,345,71
1046523,306,71
1046533,326,71
1046543,332,71
1046554,301,71
1046564,337,71
1046574,312,71
1046584,312,71
1046594,308,71
1046604,252,71
1046614,430,71
1046625,637,71
1046635,652,71
1046645,481,71
1046656,236,71
1046666,333,71
1046676,317,71
1046687,284,71
1046698,325,71
1046708,302,71
1046718,305,71
1046727,333,71
1046736,297,71
1046748,331,71
1046758,325,71
1046769,310,71
1046779,348,71
1046789,318,71
1046799,339,71
1046810,353,71
1046820,328,71
1046831,372,71
1046841,353,71
1046851,356,71
1046861,386,71
1046870,352,71
1046882,386,71
1046892,370,71
1046903,334,71
1046913,348,71
1046922,298,71
1046933,309,71
1046941,313,71
1046953,279,71
1046964,317,71
1046974,294,71
1046985,294,71
1046993,321,71
1047004,284,71
1047014,317,71
1047026,311,71
1047036,292,71
1047045,330,71
1047056,296,71
1047066,311,71
1047076,323,71
1047087,290,71
1047098,327,71
1047108,303,71
1047118,301,71
1047128,330,71
1047137,289,71
1047148,320,71
1047158,315,71
1047170,294,71
1047178,332,71
1047189,299,71
1047199,314,71
1047209,326,71
1047220,293,71
1047231,331,71
1047240,310,71
1047252,308,71
1047260,336,71
1047272,297,71
1047282,326,71
1047291,321,71
1047302,302,71
1047312,350,71
1047322,314,71
1047334,329,71
1047343,338,71
1047353,304,71
1047364,341,71
1047374,318,71
1047385,314,71
1047395,341,71
1047405,303,71
1047415,327,71
1047426,279,71
1047436,279,71
1047446,522,71
1047456,651,71
1047466,652,71
1047477,374,71
1047487,269,71
1047497,343,71
1047508,295,71
1047519,294,71
1047527,324,71
1047538,289,71
1047549,320,71
1047559,318,71
1047570,299,71
1047579,338,71
1047589,305,71
1047599,323,71
1047610,338,71
1047620,309,71
1047630,351,71
1047642,334,71
1047651,334,71
1047662,370,71
1047672,338,71
1047683,369,71
1047692,369,71
1047703,351,71
1047712,390,71
1047723,348,71
1047733,344,71
1047744,340,71
1047755,292,71
1047765,323,71
1047775,298,71
1047786,294,71
1047794,323,71
1047804,287,71
1047816,315,71
1047825,313,71
1047834,292,71
1047847,330,71
1047855,298,71
1047864,310,71
1047878,326,71
1047887,291,71
1047897,328,71
1047907,308,71
1047917,301,71
1047929,332,71
1047939,293,71
1047949,320,71
1047960,318,71
1047968,295,71
1047978,332,71
1047991,300,71
1048001,311,71
1048011,329,71
1048020,294,71
1048031,330,71
1048041,311,71
1048051,305,71
1048062,336,71
1048072,299,71
1048082,325,71
1048093,326,71
1048103,299,71
1048114,339,71
1048120,307,71
1048134,318,71
1048144,345,71
1048153,307,71
1048165,343,71
1048176,321,71
1048185,311,71
1048196,341,71
1048206,304,71
1048217,329,71
1048227,325,71
1048236,302,71
1048246,334,71
1048258,260,71
1048266,293,71
1048278,517,71
1048288,651,71
1048298,652,71
1048308,351,71
1048318,277,71
1048329,342,71
1048340,281,71
1048350,309,71
1048360,311,71
1048370,288,71
1048379,330,71
1048390,302,71
1048400,312,71
1048412,331,71
1048420,298,71
1048431,337,71
1048442,323,71
1048452,317,71
1048462,352,71
1048473,320,71
1048482,350,71
1048493,358,71
1048503,336,71
1048512,380,71
1048525,354,71
1048535,368,71
1048545,388,71
1048554,340,71
1048564,357,71
1048574,322,71
1048582,299,71
1048596,321,71
1048607,281,71
1048617,304,71
1048626,307,71
1048637,283,71
1048648,322,71
1048658,293,71
1048667,300,71
1048678,322,71
1048687,285,71
1048697,320,71
1048708,307,71
1048717,299,71
1048729,331,71
1048739,290,71
1048750,315,71
1048761,318,71
1048771,291,71
1048779,328,71
1048791,300,71
1048802,308,71
1048811,325,71
1048821,288,71
1048831,325,71
1048841,309,71
1048853,299,71
1048863,334,71
1048873,297,71
1048883,320,71
1048893,323,71
1048903,296,71
1048914,334,71
1048925,306,71
1048935,314,71
1048945,334,71
1048954,298,71
1048965,331,71
1048976,315,71
1048986,316,71
1048995,349,71
1049005,311,71
1049017,331,71
1049028,332,71
1049037,304,71
1049047,342,71
1049057,312,71
1049069,317,71
1049079,336,71
1049089,297,71
1049098,298,71
1049110,292,71
1049119,461,71
1049129,651,71
1049140,650,71
1049149,342,71
1049161,288,71
1049170,311,71
1049181,325,71
1049191,302,71
1049202,307,71
1049212,333,71
1049223,299,71
1049232,333,71
1049242,324,71
1049253,313,71
1049263,350,71
1049273,317,71
1049284,341,71
1049292,352,71
1049304,328,71
1049313,370,71
1049326,348,71
1049335,356,71
1049345,387,71
1049355,355,71
1049365,391,71
1049375,383,71
1049386,369,71
1049396,395,71
1049406,336,71
1049417,335,71
1049428,326,71
1049437,289,71
1049448,322,71
1049456,294,71
1049469,296,71
1049479,320,71
1049489,284,71
1049499,318,71
1049509,310,71
1049519,294,71
1049530,330,71
1049540,295,71
1049550,313,71
1049561,323,71
1049571,293,71
1049581,327,71
1049592,301,71
1049601,302,71
1049611,327,71
1049621,289,71
1049633,320,71
1049643,312,71
1049653,294,71
1049664,330,71
1049673,296,71
1049684,314,71
1049695,324,71
1049705,293,71
1049715,330,71
1049725,307,71
1049734,307,71
1049744,332,71
1049756,297,71
1049766,326,71
1049777,317,71
1049786,301,71
1049797,335,71
1049807,311,71
1049817,328,71
1049827,337,71
1049838,303,71
1049849,339,71
1049859,315,71
1049869,313,71
1049880,338,71
1049889,301,71
1049898,330,71
1049911,322,71
1049919,268,71
1049930,298,71
1049940,436,71
1049951,650,71
1049961,652,71
1049972,423,71
1049981,287,71
1049991,325,71
1050003,295,71
1050013,321,71
1050023,285,71
1050032,318,71
1050042,314,71
1050054,296,71
1050063,334,71
1050073,302,71
1050083,321,71
1050095,334,71
1050105,305,71
1050115,347,71
1050126,328,71
1050135,331,71
1050146,362,71
1050156,330,71
1050165,365,71
1050177,363,71
1050186,346,71
1050198,388,71
1050207,357,71
1050217,366,71
1050228,359,71
1050238,305,71
1050249,330,71
1050259,300,71
1050268,293,71
1050280,320,71
1050289,283,71
1050299,312,71
1050309,307,71
1050319,289,71
1050331,326,71
1050341,293,71
1050350,310,71
1050362,323,71
1050371,290,71
1050381,328,71
1050392,306,71
1050403,301,71
1050413,330,71
1050424,291,71
1050433,320,71
1050444,315,71
1050455,294,71
1050464,330,71
1050473,298,71
1050484,313,71
1050496,328,71
1050505,293,71
1050515,331,71
1050523,309,71
1050535,306,71
1050546,334,71
1050556,297,71
1050567,326,71
1050577,322,71
1050587,300,71
1050597,339,71
1050608,306,71
1050617,320,71
1050629,334,71
1050639,298,71
1050649,338,71
1050659,317,71
1050668,314,71
1050680,353,71
1050689,312,71
1050700,340,71
1050710,333,71
1050721,309,71
1050730,346,71
1050742,311,71
1050751,321,71
1050762,336,71
1050773,301,71
1050782,328,71
1050793,266,71
1050803,307,71
1050814,559,71
1050824,652,71
1050834,651,71
1050842,317,71
1050854,289,71
1050864,341,71
1050874,287,71
1050884,302,71
1050896,320,71
1050905,287,71
1050915,327,71
1050927,311,71
1050936,305,71
1050943,340,71
1050958,303,71
1050966,332,71
1050977,334,71
1050985,311,71
1050998,354,71
1051009,328,71
1051019,344,71
1051029,367,71
1051039,336,71
1051048,377,71
1051060,362,71
1051069,358,71
1051079,388,71
1051090,342,71
1051100,349,71
1051108,331,71
1051121,291,71
1051132,322,71
1051141,289,71
1051152,297,71
1051163,314,71
1051172,281,71
1051183,319,71
1051193,301,71
1051203,293,71
1051213,327,71
1051224,289,71
1051234,315,71
1051245,316,71
1051255,289,71
1051266,328,71
1051275,298,71
1051286,305,71
1051296,324,71
1051306,287,71
1051316,323,71
1051327,307,71
1051336,295,71
1051347,328,71
1051358,290,71
1051368,317,71
1051378,317,71
1051388,291,71
1051399,331,71
1051409,300,71
1051419,308,71
1051430,326,71
1051440,291,71
1051449,327,71
1051460,313,71
1051470,303,71
1051480,335,71
1051492,299,71
1051501,323,71
1051512,322,71
1051522,298,71
1051530,336,71
1051539,309,71
1051552,322,71
1051563,342,71
1051573,303,71
1051583,336,71
1051594,319,71
1051603,306,71
1051613,339,71
1051624,303,71
1051634,325,71
1051645,329,71
1051654,285,71
1051666,286,71
1051675,343,71
1051685,575,71
1051697,652,71
1051706,607,71
1051716,267,71
1051727,321,71
1051736,299,71
1051748,322,71
1051758,289,71
1051768,313,71
1051779,322,71
1051788,297,71
1051798,336,71
1051809,311,71
1051820,319,71
1051830,344,71
1051839,311,71
1051850,347,71
1051860,338,71
1051870,329,71
1051880,369,71
1051892,339,71
1051901,367,71
1051912,378,71
1051922,357,71
1051932,398,71
1051942,371,71
1051952,377,71
1051962,382,71
1051974,323,71
1051983,339,71
1051994,315,71
1052002,294,71
1052014,326,71
1052024,288,71
1052034,307,71
1052046,317,71
1052055,288,71
1052066,327,71
1052076,300,71
1052087,304,71
1052096,329,71
1052105,293,71
1052117,327,71
1052128,316,71
1052138,301,71
1052148,337,71
1052158,300,71
1052167,317,71
1052179,326,71
1052188,295,71
1052199,333,71
1052209,307,71
1052219,309,71
1052230,331,71
1052240,296,71
1052250,329,71
1052260,320,71
1052271,303,71
1052282,340,71
1052291,303,71
1052301,322,71
1052311,330,71
1052322,300,71
1052333,339,71
1052342,314,71
1052352,316,71
1052364,341,71
1052373,303,71
1052384,336,71
1052394,327,71
1052405,309,71
1052415,344,71
1052425,309,71
1052434,326,71
1052446,344,71
1052456,315,71
1052466,351,71
1052477,322,71
1052486,320,71
1052496,343,71
1052507,305,71
1052518,335,71
1052527,326,71
1052538,307,71
1052548,342,71
1052558,274,71
1052568,277,71
1052580,444,71
1052590,633,71
1052600,653,71
1052609,482,71
1052620,252,71
1052630,349,71
1052639,284,71
1052651,312,71
1052660,308,71
1052672,290,71
1052681,331,71
1052691,298,71
1052702,317,71
1052713,330,71
1052722,300,71
1052733,341,71
1052743,320,71
1052750,321,71
1052763,352,71
1052774,318,71
1052781,353,71
1052795,353,71
1052803,339,71
1052815,380,71
1052825,350,71
1052836,369,71
1052845,383,71
1052856,348,71
1052867,371,71
1052877,328,71
1052888,309,71
1052898,326,71
1052908,283,71
1052918,310,71
1052928,305,71
1052937,284,71
1052949,324,71
1052959,291,71
1052969,307,71
1052979,321,71
1052989,287,71
1053000,327,71
1053010,306,71
1053020,302,71
1053029,330,71
1053040,291,71
1053052,321,71
1053062,316,71
1053072,294,71
1053082,330,71
1053091,297,71
1053102,311,71
1053112,326,71
1053123,291,71
1053134,329,71
1053144,308,71
1053153,304,71
1053164,333,71
1053173,296,71
1053185,323,71
1053195,320,71
1053206,298,71
1053216,336,71
1053226,305,71
1053236,317,71
1053246,332,71
1053256,297,71
1053266,335,71
1053277,316,71
1053287,310,71
1053298,341,71
1053308,304,71
1053318,332,71
1053328,329,71
1053338,305,71
1053347,346,71
1053360,311,71
1053369,329,71
1053380,350,71
1053390,312,71
1053400,346,71
1053410,323,71
1053421,317,71
1053430,346,71
1053441,307,71
1053452,335,71
1053462,332,71
1053472,308,71
1053482,318,71
1053492,261,71
1053500,408,71
1053514,647,70
1053523,653,70
1053533,570,70
1053543,262,70
1053553,322,70
1053563,328,70
1053574,286,70
1053586,315,70
1053596,317,70
1053605,295,70
1053616,336,70
1053626,306,70
1053637,318,70
1053646,338,70
1053657,305,70
1053666,343,70
1053677,329,70
1053688,323,70
1053698,358,70
1053708,324,70
1053717,356,70
1053729,362,70
1053738,342,70
1053749,384,70
1053760,357,70
1053770,367,70
1053779,386,70
1053791,337,70
1053801,353,70
1053810,319,70
1053822,298,70
1053831,324,70
1053842,285,70
1053852,308,70
1053862,310,70
1053872,286,70
1053882,324,70
1053892,295,70
1053904,304,70
1053914,324,70
1053923,289,70
1053933,325,70
1053944,308,70
1053955,298,70
1053965,329,70
1053975,291,70
1053986,315,70
1053996,319,70
1054006,291,70
1054015,327,70
1054025,298,70
1054036,307,70
1054048,327,70
1054058,291,70
1054067,323,70
1054078,310,70
1054088,298,70
1054097,332,70
1054109,295,70
1054117,317,70
1054129,322,70
1054140,295,70
1054150,335,70
1054160,305,70
1054170,309,70
1054179,332,70
1054191,293,70
1054201,331,70
1054210,318,70
1054222,302,70
1054232,338,70
1054242,301,70
1054252,323,70
1054263,328,70
1054273,297,70
1054283,347,70
1054293,319,70
1054304,323,70
1054314,340,70
1054325,304,70
1054334,337,70
1054345,322,70
1054355,305,70
1054366,340,70
1054376,303,70
1054385,319,70
1054395,283,70
1054406,286,70
1054416,538,69
1054426,651,69
1054437,650,69
1054447,318,69
1054457,274,69
1054468,334,69
1054477,301,69
1054489,288,69
1054498,328,69
1054509,291,69
1054516,314,69
1054529,324,69
1054540,299,69
1054548,337,69
1054560,311,69
1054570,317,69
1054580,346,69
1054591,314,69
1054601,349,69
1054612,344,69
1054621,334,69
1054632,374,69
1054643,346,69
1054653,369,69
1054663,381,69
1054670,357,69
1054682,393,69
1054694,356,69
1054705,337,69
1054713,339,69
1054722,289,69
1054735,312,69
1054746,296,69
1054756,280,69
1054766,312,69
1054775,280,69
1054785,299,69
1054797,311,69
1054805,280,69
1054817,318,69
1054827,297,69
1054837,298,69
1054848,322,69
1054857,285,69
1054868,318,69
1054879,308,69
1054888,289,69
1054898,328,69
1054909,291,69
1054919,308,69
1054930,316,69
1054940,286,69
1054950,325,69
1054961,300,69
1054970,300,69
1054980,326,69
1054992,289,69
1055002,319,69
1055012,313,69
1055023,296,69
1055032,333,69
1055043,299,69
1055053,315,69
1055063,327,69
1055074,297,69
1055084,330,69
1055094,319,69
1055105,320,69
1055114,347,69
1055125,305,69
1055136,335,69
1055145,329,69
1055156,308,69
1055166,344,69
1055176,308,69
1055185,323,69
1055197,334,69
1055207,274,69
1055216,303,69
1055227,443,69
1055237,634,69
1055247,651,69
1055258,371,69
1055268,275,69
1055279,337,69
1055290,294,69
1055299,331,69
1055310,304,69
1055319,319,69
1055331,336,69
1055341,306,69
1055351,344,69
1055360,325,69
1055371,325,69
1055382,354,69
1055392,321,69
1055403,353,69
1055411,354,69
1055420,337,69
1055432,379,69
1055443,354,69
1055452,374,69
1055464,394,69
1055474,364,69
1055485,404,69
1055492,383,69
1055503,367,69
1055515,376,69
1055525,317,69
1055536,326,69
1055546,314,69
1055556,287,69
1055567,323,69
1055575,289,69
1055587,300,69
1055597,319,69
1055606,287,69
1055618,325,69
1055628,306,69
1055639,300,69
1055649,332,69
1055657,295,69
1055669,323,69
1055679,322,69
1055688,296,69
1055700,333,69
1055710,302,69
1055720,312,69
1055729,329,69
1055740,294,69
1055752,331,69
1055760,313,69
1055770,303,69
1055782,337,69
1055791,298,69
1055803,324,69
1055811,325,69
1055823,299,69
1055833,339,69
1055843,308,69
1055854,316,69
1055864,335,69
1055873,302,69
1055884,334,69
1055895,321,69
1055905,308,69
1055916,347,69
1055925,316,69
1055936,338,69
1055946,338,69
1055956,308,69
1055967,346,69
1055977,315,69
1055987,320,69
1055997,340,69
1056008,302,69
1056018,337,69
1056029,300,69
1056037,256,69
1056049,399,69
1056059,591,69
1056070,653,69
1056080,610,69
1056090,237,69
1056100,347,69
1056109,301,69
1056120,298,69
1056131,322,69
1056141,287,69
1056152,324,69
1056161,313,69
1056171,303,69
1056182,339,69
1056192,303,69
1056204,328,69
1056212,336,69
1056223,311,69
1056234,353,69
1056243,329,69
1056254,338,69
1056265,365,69
1056274,334,69
1056285,374,69
1056296,366,69
1056305,355,69
1056316,394,69
1056325,355,69
1056337,362,69
1056346,348,69
1056356,301,69
1056366,328,69
1056376,294,69
1056387,296,69
1056398,320,69
1056408,283,69
1056418,318,69
1056428,308,69
1056438,293,69
1056450,330,69
1056460,294,69
1056470,315,69
1056480,323,69
1056490,292,69
1056500,332,69
1056509,304,69
1056521,306,69
1056531,331,69
1056542,294,69
1056552,325,69
1056562,314,69
1056571,296,69
1056583,334,69
1056593,297,69
1056604,316,69
1056613,325,69
1056622,293,69
1056634,334,69
1056644,307,69
1056654,307,69
1056664,334,69
1056674,296,69
1056685,329,69
1056695,320,69
1056706,303,69
1056716,338,69
1056726,303,69
1056736,320,69
1056746,332,69
1056757,299,69
1056767,341,69
1056777,325,69
1056788,321,69
1056797,347,69
1056809,304,69
1056817,334,69
1056828,326,69
1056840,305,69
1056848,341,69
1056860,305,69
1056870,322,69
1056881,324,69
1056891,248,69
1056900,330,69
1056912,526,69
1056922,652,69
1056931,651,69
1056941,299,69
1056952,311,69
1056962,320,69
1056973,279,69
1056983,320,69
1056994,287,69
1057004,305,69
1057014,319,69
1057025,289,69
1057034,329,69
1057044,310,69
1057054,308,69
1057064,338,69
1057075,304,69
1057085,338,69
1057095,336,69
1057106,320,69
1057117,363,69
1057127,335,69
1057137,356,69
1057148,373,69
1057158,343,69
1057168,386,69
1057178,365,69
1057188,353,69
1057197,363,69
1057208,306,69
1057218,321,69
1057230,311,69
1057239,284,69
1057250,321,69
1057261,289,69
1057270,303,69
1057280,318,69
1057291,286,69
1057300,325,69
1057311,304,69
1057322,301,69
1057332,331,69
1057342,292,69
1057352,320,69
1057363,318,69
1057372,295,69
1057384,331,69
1057394,299,69
1057403,308,69
1057415,324,69
1057424,289,69
1057434,327,69
1057446,308,69
1057456,302,69
1057466,333,69
1057475,294,69
1057485,324,69
1057497,320,69
1057505,296,69
1057516,336,69
1057527,303,69
1057537,313,69
1057548,332,69
1057557,299,69
1057568,335,69
1057579,314,69
1057589,306,69
1057599,338,69
1057610,300,69
1057619,324,69
1057630,337,69
1057639,312,69
1057650,345,69
1057661,312,69
1057670,324,69
1057682,338,69
1057692,301,69
1057702,336,69
1057712,315,69
1057722,306,69
1057732,332,69
1057742,257,69
1057752,294,69
1057764,493,69
1057774,650,69
1057783,652,69
1057794,347,69
1057804,274,69
1057815,338,69
1057825,276,69
1057836,316,69
1057845,302,69
1057855,292,69
1057866,328,69
1057877,291,69
1057887,320,69
1057895,326,69
1057907,298,69
1057918,341,69
1057927,317,69
1057938,326,69
1057949,347,69
1057959,317,69
1057968,360,69
1057978,350,69
1057989,347,69
1058000,387,69
1058010,353,69
1058020,378,69
1058030,384,69
1058040,345,69
1058050,365,69
1058061,318,69
1058071,306,69
1058082,318,69
1058091,275,69
1058103,309,69
1058112,296,69
1058123,281,69
1058133,318,69
1058143,285,69
1058154,306,69
1058164,311,69
1058173,285,69
1058184,326,69
1058194,296,69
1058204,304,69
1058215,324,69
1058225,289,69
1058236,320,69
1058246,310,69
1058256,296,69
1058266,329,69
1058275,293,69
1058287,313,69
1058297,318,69
1058307,290,69
1058318,330,69
1058327,304,69
1058337,308,69
1058349,328,69
1058358,294,69
1058369,325,69
1058380,316,69
1058390,300,69
1058400,336,69
1058409,301,69
1058420,321,69
1058430,329,69
1058440,298,69
1058452,347,69
1058461,322,69
1058472,325,69
1058482,343,69
1058491,306,69
1058502,337,69
1058512,327,69
1058522,307,69
1058532,344,69
1058542,306,69
1058554,320,69
1058562,296,69
1058573,278,69
1058584,507,69
1058594,648,69
1058605,647,69
1058616,330,69
1058625,264,69
1058636,340,69
1058645,308,69
1058656,297,69
1058665,334,69
1058677,302,69
1058687,323,69
1058696,335,69
1058707,305,69
1058717,347,69
1058727,325,69
1058738,325,69
1058749,356,69
1058759,322,69
1058770,357,69
1058780,357,69
1058790,344,69
1058800,385,69
1058810,359,69
1058819,377,69
1058830,393,69
1058840,366,69
1058851,402,69
1058861,364,69
1058872,340,69
1058882,347,69
1058893,293,69
1058902,315,69
1058913,304,69
1058923,284,69
1058930,321,69
1058944,290,69
1058955,304,69
1058965,320,69
1058974,285,69
1058985,324,69
1058996,305,69
1059006,304,69
1059016,332,69
1059026,293,69
1059036,323,69
1059045,318,69
1059056,295,69
1059067,332,69
1059077,300,69
1059088,311,69
1059097,325,69
1059107,290,69
1059118,329,69
1059128,307,69
1059138,301,69
1059149,333,69
1059159,295,69
1059170,324,69
1059180,320,69
1059190,297,69
1059199,335,69
1059209,302,69
1059221,314,69
1059231,330,69
1059241,297,69
1059252,333,69
1059261,316,69
1059272,307,69
1059283,339,69
1059292,310,69
1059303,337,69
1059313,336,69
1059323,307,69
1059334,344,69
1059343,312,69
1059355,320,69
1059365,336,69
1059374,301,69
1059386,338,69
1059395,315,69
1059406,262,69
1059416,301,69
1059425,453,69
1059436,651,69
1059445,652,69
1059458,385,69
1059468,295,69
1059478,315,69
1059487,295,69
1059499,315,69
1059507,282,69
1059518,320,69
1059528,306,69
1059538,300,69
1059550,333,69
1059560,298,69
1059570,325,69
1059581,327,69
1059591,306,69
1059601,347,69
1059610,320,69
1059620,333,69
1059632,358,69
1059642,328,69
1059652,368,69
1059661,358,69
1059673,352,69
1059683,389,69
1059690,354,69
1059702,370,69
1059714,356,69
1059724,309,69
1059733,333,69
1059744,295,69
1059753,298,69
1059766,318,69
1059776,281,69
1059786,316,69
1059796,304,69
1059806,292,69
1059815,328,69
1059827,293,69
1059837,315,69
1059848,320,69
1059858,293,69
1059867,331,69
1059878,303,69
1059887,307,69
1059898,330,69
1059909,292,69
1059919,326,69
1059930,313,69
1059940,298,69
1059949,333,69
1059960,298,69
1059971,317,69
1059979,323,69
1059991,295,69
1060001,334,69
1060011,306,69
1060021,310,69
1060031,333,69
1060041,296,69
1060053,331,69
1060063,320,69
1060073,304,69
1060082,341,69
1060093,304,69
1060103,323,69
1060114,330,69
1060124,302,69
1060135,338,69
1060145,314,69
1060155,314,69
1060165,348,69
1060175,312,69
1060186,343,69
1060196,331,69
1060206,310,69
1060217,345,69
1060226,309,69
1060236,326,69
1060248,336,69
1060258,303,69
1060267,341,69
1060278,291,69
1060289,262,69
1060300,419,69
1060310,608,69
1060320,653,69
1060330,593,69
1060339,246,69
1060350,351,69
1060360,292,69
1060371,304,69
1060381,315,69
1060392,286,69
1060402,329,69
1060412,306,69
1060421,305,69
1060432,335,69
1060441,300,69
1060453,332,69
1060464,328,69
1060474,313,69
1060484,354,69
1060494,321,69
1060504,342,69
1060515,360,69
1060525,333,69
1060536,378,69
1060545,360,69
1060556,360,69
1060566,392,69
1060576,350,69
1060587,368,69
1060596,342,69
1060607,303,69
1060617,331,69
1060627,290,69
1060638,303,69
1060648,315,69
1060658,284,69
1060669,322,69
1060678,299,69
1060690,296,69
1060700,328,69
1060710,290,69
1060719,320,69
1060730,315,69
1060739,292,69
1060751,330,69
1060760,296,69
1060771,308,69
1060780,323,69
1060791,289,69
1060802,327,69
1060812,305,69
1060822,301,69
1060833,332,69
1060843,292,69
1060854,320,69
1060864,319,69
1060873,295,69
1060883,332,69
1060893,300,69
1060905,310,69
1060914,326,69
1060926,292,69
1060936,333,69
1060946,310,69
1060956,304,69
1060965,334,69
1060976,298,69
1060987,326,69
1060997,325,69
1061008,299,69
1061018,340,69
1061027,305,69
1061037,317,69
1061049,333,69
1061059,308,69
1061067,343,69
1061080,323,69
1061088,311,69
1061100,340,69
1061110,302,69
1061121,329,69
1061130,328,69
1061140,299,69
1061150,335,69
1061160,301,69
1061172,271,69
1061182,301,69
1061192,463,69
1061203,651,69
1061212,652,69
1061223,336,69
1061232,299,69
1061242,305,69
1061254,305,69
1061264,310,69
1061273,287,69
1061285,327,69
1061295,299,69
1061305,308,69
1061316,332,69
1061326,300,69
1061336,334,69
1061346,322,69
1061355,315,69
1061365,351,69
1061377,319,69
1061388,348,69
1061397,355,69
1061407,335,69
1061418,380,69
1061428,357,69
1061438,371,69
1061449,393,69
1061459,356,69
1061470,385,69
1061480,350,69
1061490,315,69
1061500,333,69
1061510,286,69
1061519,305,69
1061530,307,69
1061540,279,69
1061552,318,69
1061561,290,69
1061571,296,69
1061582,321,69
1061592,284,69
1061601,319,69
1061611,307,69
1061624,295,69
1061634,327,69
1061643,292,69
1061654,314,69
1061663,317,69
1061674,289,69
1061685,326,69
1061695,300,69
1061705,302,69
1061715,323,69
1061726,290,69
1061735,322,69
1061745,311,69
1061756,297,69
1061767,334,69
1061778,297,69
1061788,319,69
1061797,323,69
1061807,295,69
1061818,335,69
1061828,308,69
1061839,310,69
1061848,335,69
1061860,300,69
1061869,328,69
1061880,329,69
1061891,316,69
1061899,348,69
1061910,309,69
1061920,328,69
1061931,335,69
1061940,304,69
1061952,342,69
1061962,316,69
1061972,315,69
1061982,339,69
1061993,270,69
1062003,297,69
1062013,453,69
1062023,633,70
1062034,651,70
1062044,376,70
1062055,269,70
1062063,344,70
1062074,286,70
1062085,326,70
1062096,306,70
1062106,306,70
1062116,337,70
1062125,301,70
1062135,334,70
1062146,329,70
1062155,315,70
1062167,352,70
1062178,319,70
1062188,341,70
1062198,356,70
1062208,329,70
1062218,372,70
1062228,355,70
1062238,360,70
1062247,395,70
1062260,360,70
1062271,394,70
1062280,390,70
1062290,357,70
1062301,372,70
1062311,316,70
1062322,316,70
1062331,318,70
1062342,281,70
1062352,316,70
1062361,293,70
1062370,290,70
1062382,320,70
1062394,285,70
1062402,316,70
1062413,312,70
1062425,293,70
1062433,331,70
1062444,297,70
1062455,311,70
1062465,325,70
1062476,290,70
1062486,327,70
1062496,307,70
1062506,302,70
1062515,331,70
1062527,293,70
1062535,320,70
1062548,316,70
1062557,293,70
1062568,333,70
1062577,298,70
1062587,312,70
1062597,328,70
1062607,295,70
1062618,331,70
1062630,311,70
1062639,304,70
1062650,335,70
1062660,299,70
1062669,323,70
1062680,323,70
1062688,299,70
1062700,338,70
1062711,319,70
1062720,326,70
1062732,343,70
1062741,304,70
1062752,338,70
1062761,318,70
1062773,308,70
1062783,340,70
1062794,301,70
1062803,327,70
1062814,324,70
1062824,257,70
1062834,302,70
1062844,458,70
1062854,651,71
1062866,652,71
1062875,393,71
1062885,292,71
1062895,325,71
1062905,286,71
1062916,320,71
1062927,285,71
1062937,312,71
1062948,315,71
1062958,290,71
1062968,332,71
1062978,305,71
1062989,315,71
1062999,336,71
1063008,303,71
1063020,343,71
1063030,330,71
1063040,323,71
1063050,362,71
1063060,331,71
1063070,359,71
1063079,370,71
1063090,345,71
1063102,388,71
1063111,361,71
1063122,362,71
1063132,365,71
1063141,307,71
1063153,328,71
1063162,306,71
1063173,288,71
1063184,321,71
1063193,285,71
1063203,308,71
1063213,315,71
1063224,285,71
1063236,326,71
1063245,297,71
1063255,303,71
1063266,326,71
1063276,289,71
1063286,322,71
1063297,312,71
1063307,296,71
1063317,332,71
1063327,294,71
1063338,315,71
1063348,320,71
1063357,291,71
1063368,329,71
1063378,302,71
1063388,305,71
1063400,330,71
1063410,292,71
1063420,324,71
1063430,314,71
1063439,300,71
1063450,334,71
1063459,297,71
1063470,319,71
1063481,327,71
1063491,297,71
1063502,335,71
1063511,310,71
1063521,311,71
1063533,338,71
1063542,297,71
1063553,330,71
1063564,321,71
1063574,306,71
1063582,354,71
1063594,314,71
1063603,330,71
1063612,336,71
1063626,303,71
1063635,341,71
1063646,316,71
1063656,314,71
1063666,341,71
1063676,301,71
1063686,325,71
1063695,273,71
1063707,290,71
1063717,540,70
1063728,652,70
1063737,652,70
1063748,355,70
1063758,278,70
1063769,340,70
1063779,292,70
1063790,294,70
1063800,323,70
1063809,286,70
1063820,320,70
1063830,316,70
1063840,297,70
1063851,337,70
1063860,305,70
1063870,324,70
1063882,340,70
1063891,308,70
1063903,350,70
1063912,333,70
1063922,335,70
1063933,370,70
1063942,337,70
1063954,372,70
1063963,372,70
1063974,355,70
1063985,394,70
1063993,351,70
1064004,347,70
1064016,341,70
1064025,291,70
1064036,323,70
1064045,297,70
1064056,290,70
1064067,320,70
1064075,285,70
1064087,312,70
1064097,308,70
1064107,287,70
1064118,327,70
1064128,294,70
1064137,306,70
1064147,321,70
1064157,286,70
1064169,326,70
1064179,306,70
1064189,297,70
1064200,328,70
1064210,291,70
1064220,320,70
1064229,315,70
1064240,290,70
1064251,331,70
1064260,298,70
1064270,308,70
1064280,325,70
1064292,293,70
1064303,328,70
1064312,310,70
1064323,302,70
1064334,336,70
1064343,299,70
1064354,322,70
1064364,322,70
1064375,299,70
1064385,338,70
1064395,307,70
1064406,316,70
1064415,333,70
1064425,299,70
1064436,333,70
1064447,322,70
1064456,317,70
1064467,350,70
1064476,311,70
1064488,331,70
1064497,332,70
1064508,305,70
1064518,342,70
1064527,309,70
1064537,318,70
1064549,336,70
1064560,270,70
1064569,294,70
1064580,429,70
1064590,630,70
1064600,652,70
1064609,434,70
1064620,266,70
1064629,341,70
1064640,286,70
1064650,325,70
1064661,298,70
1064671,307,70
1064682,332,70
1064692,297,70
1064704,336,70
1064713,326,70
1064722,313,70
1064734,351,70
1064743,317,70
1064754,343,70
1064764,354,70
1064775,328,70
1064785,372,70
1064796,353,70
1064806,363,70
1064816,390,70
1064826,359,70
1064837,397,70
1064847,388,70
1064856,366,70
1064867,383,70
1064878,325,70
1064887,328,70
1064897,323,70
1064908,288,70
1064918,325,70
1064928,298,70
1064938,299,70
1064950,326,70
1064960,289,70
1064969,323,70
1064980,315,70
1064990,299,70
1065001,333,70
1065010,299,70
1065021,317,70
1065030,326,70
1065041,295,70
1065052,334,70
1065061,307,70
1065072,308,70
1065081,334,70
1065092,294,70
1065103,324,70
1065114,317,70
1065124,298,70
1065134,334,70
1065143,300,70
1065154,317,70
1065164,328,70
1065175,298,70
1065186,335,70
1065195,313,70
1065206,310,70
1065216,338,70
1065225,301,70
1065237,330,70
1065247,322,70
1065256,304,70
1065267,338,70
1065278,312,70
1065288,333,70
1065298,344,70
1065307,307,70
1065317,341,70
1065330,318,70
1065340,314,70
1065350,342,70
1065359,302,70
1065370,330,70
1065380,325,70
1065390,284,70
1065401,287,70
1065410,353,70
1065421,596,70
1065432,652,70
1065441,584,70
1065452,269,70
1065462,319,70
1065472,301,70
1065483,321,70
1065493,288,70
1065504,318,70
1065513,316,70
1065524,296,70
1065534,337,70
1065544,306,70
1065555,320,70
1065563,337,70
1065575,305,70
1065586,344,70
1065596,329,70
1065606,326,70
1065616,361,70
1065627,330,70
1065636,363,70
1065647,367,70
1065657,346,70
1065667,389,70
1065678,361,70
1065688,370,70
1065697,375,70
1065709,319,70
1065720,339,70
1065730,307,70
1065738,294,70
1065750,324,70
1065760,283,70
1065771,311,70
1065780,313,70
1065791,287,70
1065801,327,70
1065811,296,70
1065822,305,70
1065831,325,70
1065843,291,70
1065850,327,70
1065863,310,70
1065873,300,70
1065883,332,70
1065891,294,70
1065903,320,70
1065915,320,70
1065923,294,70
1065934,333,70
1065945,302,70
1065956,309,70
1065965,330,70
1065976,294,70
1065986,330,70
1065995,314,70
1066006,302,70
1066016,337,70
1066027,300,70
1066038,322,70
1066047,327,70
1066058,299,70
1066068,339,70
1066077,310,70
1066089,315,70
1066098,338,70
1066108,301,70
1066119,333,70
1066129,323,70
1066141,306,70
1066150,348,70
1066159,317,70
1066171,336,70
1066181,339,70
1066191,306,70
1066201,344,70
1066212,314,70
1066222,317,70
1066232,339,70
1066243,301,70
1066251,336,70
1066260,301,70
1066273,253,70
1066284,400,70
1066294,593,70
1066304,652,70
1066315,615,70
1066325,240,70
1066335,347,70
1066345,301,70
1066356,294,70
1066365,320,70
1066377,284,70
1066387,320,70
1066395,313,70
1066407,298,70
1066417,336,70
1066428,303,70
1066438,323,70
1066447,333,70
1066459,304,70
1066469,347,70
1066478,325,70
1066490,331,70
1066498,364,70
1066509,330,70
1066519,368,70
1066530,364,70
1066540,348,70
1066549,389,70
1066560,353,70
1066572,359,70
1066582,351,70
1066592,301,70
1066601,327,70
1066611,297,70
1066621,293,70
1066632,321,70
1066643,282,70
1066654,313,70
1066662,308,70
1066674,289,70
1066684,329,70
1066694,294,70
1066705,311,70
1066716,323,70
1066726,290,70
1066736,327,70
1066746,304,70
1066756,301,70
1066765,329,70
1066777,291,70
1066787,320,70
1066796,315,70
1066808,293,70
1066817,331,70
1066828,297,70
1066839,310,70
1066848,325,70
1066859,290,70
1066868,328,70
1066878,309,70
1066889,301,70
1066900,332,70
1066910,296,70
1066919,323,70
1066930,321,70
1066940,299,70
1066951,335,70
1066961,304,70
1066972,317,70
1066982,331,70
1066992,297,70
1067002,333,70
1067011,318,70
1067023,318,70
1067032,348,70
1067043,306,70
1067053,330,70
1067063,328,70
1067074,301,70
1067084,340,70
1067094,306,70
1067105,315,70
1067115,332,70
1067126,280,70
1067136,282,70
1067146,357,70
1067155,575,70
1067167,652,70
1067177,599,70
1067187,259,70
1067198,329,70
1067208,291,70
1067218,320,70
1067228,295,70
1067237,306,70
1067248,326,70
1067260,293,70
1067267,332,70
1067280,316,70
1067290,307,70
1067300,344,70
1067311,309,70
1067321,336,70
1067330,344,70
1067341,319,70
1067351,361,70
1067361,340,70
1067371,351,70
1067382,374,70
1067392,345,70
1067402,384,70
1067413,374,70
1067422,363,70
1067434,381,70
1067444,324,70
1067454,327,70
1067463,318,70
1067475,283,70
1067485,318,70
1067496,290,70
1067506,297,70
1067515,317,70
1067526,282,70
1067535,317,70
1067546,304,70
1067557,293,70
1067567,327,70
1067577,292,70
1067588,315,70
1067597,319,70
1067607,292,70
1067617,329,70
1067628,301,70
1067639,304,70
1067649,328,70
1067659,289,70
1067670,323,70
1067680,311,70
1067690,294,70
1067700,331,70
1067711,295,70
1067722,314,70
1067730,322,70
1067742,292,70
1067751,331,70
1067762,305,70
1067773,309,70
1067783,333,70
1067793,296,70
1067803,328,70
1067813,317,70
1067823,310,70
1067833,348,70
1067844,312,70
1067853,326,70
1067863,332,70
1067875,302,70
1067885,339,70
1067895,312,70
1067905,312,70
1067915,337,70
1067927,299,70
1067936,305,70
1067947,279,70
1067958,403,70
1067966,645,70
1067977,651,70
1067987,446,70
1067997,264,70
1068009,306,70
1068018,322,70
1068028,297,70
1068037,300,70
1068048,328,70
1068060,295,70
1068070,327,70
1068080,324,70
1068090,306,70
1068101,345,70
1068111,314,70
1068122,332,70
1068131,347,70
1068141,319,70
1068153,360,70
1068161,343,70
1068172,344,70
1068183,379,70
1068193,348,70
1068203,379,70
1068214,381,70
1068224,361,70
1068232,392,70
1068245,340,70
1068255,332,70
1068265,330,70
1068275,286,70
1068285,319,70
1068295,294,70
1068305,287,70
1068315,317,70
1068326,280,70
1068337,311,70
1068347,308,70
1068357,286,70
1068367,325,70
1068378,292,70
1068388,304,70
1068399,321,70
1068409,287,70
1068419,324,70
1068428,304,70
1068440,297,70
1068449,328,70
1068459,289,70
1068470,316,70
1068480,315,70
1068491,290,70
1068502,329,70
1068512,296,70
1068522,307,70
1068531,325,70
1068541,291,70
1068553,325,70
1068562,308,70
1068573,301,70
1068584,332,70
1068593,295,70
1068603,320,70
1068614,320,70
1068625,296,70
1068634,332,70
1068645,312,70
1068655,322,70
1068665,340,70
1068676,301,70
1068685,335,70
1068695,316,70
1068706,306,70
1068717,338,70
1068727,299,70
1068737,325,70
1068747,327,70
1068758,270,70
1068767,288,70
1068778,405,70
1068789,633,70
1068799,653,70
1068810,504,70
1068820,271,70
1068829,329,70
1068839,288,70
1068849,319,70
1068860,286,70
1068871,308,70
1068882,317,70
1068892,293,70
1068901,331,70
1068912,307,70
1068922,313,70
1068932,338,70
1068943,304,70
1068952,340,70
1068962,332,70
1068973,321,70
1068983,359,70
1068994,328,70
1069003,356,70
1069014,366,70
1069024,341,70
1069034,383,70
1069045,360,70
1069055,360,70
1069066,370,70
1069077,315,70
1069085,333,70
1069095,312,70
1069107,290,70
1069117,325,70
1069127,289,70
1069137,310,70
1069147,318,70
1069157,288,70
1069169,329,70
1069179,304,70
1069189,306,70
1069199,332,70
1069210,295,70
1069219,327,70
1069229,319,70
1069239,300,70
1069249,337,70
1069261,300,70
1069272,317,70
1069281,327,70
1069291,295,70
1069301,333,70
1069312,309,70
1069323,308,70
1069331,335,70
1069343,297,70
1069353,328,70
1069362,322,70
1069374,302,70
1069383,339,70
1069395,305,70
1069405,321,70
1069414,334,70
1069425,301,70
1069435,338,70
1069445,317,70
1069456,313,70
1069465,352,70
1069477,313,70
1069487,342,70
1069497,332,70
1069507,308,70
1069517,346,70
1069527,312,70
1069538,323,70
1069547,335,70
1069557,302,70
1069569,337,70
1069579,286,70
1069589,264,70
1069599,445,70
1069610,628,71
1069621,652,71
1069629,521,71
1069641,244,71
1069651,353,71
1069661,292,71
1069671,302,71
1069682,321,71
1069691,288,71
1069703,328,71
1069712,311,71
1069723,305,71
1069732,338,71
1069743,304,71
1069753,333,71
1069764,332,71
1069774,312,71
1069784,354,71
1069795,331,71
1069805,342,71
1069815,367,71
1069825,335,71
1069835,377,71
1069846,363,71
1069856,356,71
1069866,395,71
1069877,354,71
1069887,362,71
1069897,344,71
1069908,301,71
1069918,330,71
1069927,293,71
1069939,300,71
1069949,318,71
1069959,283,71
1069969,320,71
1069980,305,71
1069989,295,71
1069999,328,71
1070010,294,71
1070020,317,71
1070031,320,71
1070042,292,71
1070051,329,71
1070062,302,71
1070072,307,71
1070081,327,71
1070092,292,71
1070103,327,71
1070113,311,71
1070123,299,71
1070134,333,71
1070144,296,71
1070154,317,71
1070164,325,71
1070174,296,71
1070183,335,71
1070195,308,71
1070205,309,71
1070214,333,71
1070225,296,71
1070236,331,71
1070247,319,71
1070255,301,71
1070267,341,71
1070277,302,71
1070287,325,71
1070297,341,71
1070307,308,71
1070317,345,71
1070329,313,71
1070339,316,71
1070349,342,71
1070359,301,71
1070369,334,71
1070380,322,71
1070389,303,71
1070399,330,71
1070411,258,71
1070421,333,71
1070430,563,71
1070442,651,71
1070451,641,71
1070463,259,71
1070472,302,71
1070483,338,71
1070493,281,71
1070503,317,71
1070512,313,71
1070523,296,71
1070534,333,71
1070544,303,71
1070553,321,71
1070564,335,71
1070575,303,71
1070585,346,71
1070595,326,71
1070605,326,71
1070615,358,71
1070626,327,71
1070636,363,71
1070647,363,71
1070657,348,71
1070667,390,71
1070678,357,71
1070687,378,71
1070698,389,71
1070707,343,71
1070717,359,71
1070729,317,71
1070739,301,71
1070749,323,71
1070760,279,71
1070770,308,71
1070780,306,71
1070789,286,71
1070801,324,71
1070811,294,71
1070821,307,71
1070831,323,71
1070842,291,71
1070851,328,71
1070862,306,71
1070871,300,71
1070882,332,71
1070892,294,71
1070904,319,71
1070914,319,71
1070923,294,71
1070932,331,71
1070945,299,71
1070955,311,71
1070964,325,71
1070975,292,71
1070985,328,71
1070996,311,71
1071005,303,71
1071015,333,71
1071025,296,71
1071037,321,71
1071047,321,71
1071057,294,71
1071068,344,71
1071077,313,71
1071087,322,71
1071097,335,71
1071109,298,71
1071119,333,71
1071129,316,71
1071139,304,71
1071149,337,71
1071159,298,71
1071170,323,71
1071180,292,71
1071191,249,71
1071201,452,71
1071211,635,71
1071222,651,71
1071231,436,71
1071241,234,71
1071252,340,71
1071262,300,71
1071273,287,71
1071283,326,71
1071294,291,71
1071304,315,71
1071314,322,71
1071325,295,71
1071334,336,71
1071345,310,71
1071354,316,71
1071365,341,71
1071376,309,71
1071385,347,71
1071395,339,71
1071405,330,71
1071417,370,71
1071427,340,71
1071437,364,71
1071447,376,71
1071458,351,71
1071467,391,71
1071478,354,71
1071487,337,71
1071499,341,71
1071509,288,71
1071519,312,71
1071529,300,71
1071539,281,71
1071549,317,71
1071560,281,71
1071569,301,71
1071580,312,71
1071591,283,71
1071601,322,71
1071612,299,71
1071621,300,71
1071631,326,71
1071641,288,71
1071653,319,71
1071663,312,71
1071671,293,71
1071684,329,71
1071693,294,71
1071703,311,71
1071715,322,71
1071725,290,71
1071735,328,71
1071745,306,71
1071756,304,71
1071765,331,71
1071776,292,71
1071784,324,71
1071796,319,71
1071807,296,71
1071817,336,71
1071827,302,71
1071837,317,71
1071847,332,71
1071858,296,71
1071867,334,71
1071879,311,71
1071888,309,71
1071899,351,71
1071909,309,71
1071920,336,71
1071930,329,71
1071939,306,71
1071949,342,71
1071961,307,71
1071971,321,71
1071980,334,71
1071991,299,71
1072001,330,71
1072011,267,71
1072022,291,71
1072032,533,72
1072043,651,72
1072052,652,72
1072063,344,72
1072074,277,72
1072082,344,72
1072093,289,72
1072105,302,72
1072113,322,72
1072125,288,72
1072134,327,72
1072145,311,72
1072155,305,72
1072165,338,72
1072176,303,72
1072187,332,72
1072197,335,72
1072207,312,72
1072217,356,72
1072227,328,72
1072237,342,72
1072247,369,72
1072258,337,72
1072267,377,72
1072279,364,72
1072289,358,72
1072300,392,72
1072310,346,72
1072319,352,72
1072331,337,72
1072339,294,72
1072351,326,72
1072361,295,72
1072370,300,72
1072381,323,72
1072392,285,72
1072401,323,72
1072412,309,72
1072421,298,72
1072432,333,72
1072442,297,72
1072453,318,72
1072464,324,72
1072473,295,72
1072484,334,72
1072494,307,72
1072505,310,72
1072515,333,72
1072526,294,72
1072535,328,72
1072546,315,72
1072556,300,72
1072567,335,72
1072577,298,72
1072587,318,72
1072597,326,72
1072607,296,72
1072617,335,72
1072627,309,72
1072637,310,72
1072649,335,72
1072659,298,72
1072669,332,72
1072679,322,72
1072689,306,72
1072700,342,72
1072710,306,72
1072720,326,72
1072730,333,72
1072741,301,72
1072751,341,72
1072762,314,72
1072771,326,72
1072781,352,72
1072791,312,72
1072803,338,72
1072813,328,72
1072822,311,72
1072833,345,72
1072843,309,72
1072853,326,72
1072864,336,72
1072873,302,72
1072885,304,72
1072895,271,72
1072905,442,72
1072916,652,72
1072926,652,72
1072936,480,72
1072945,277,72
1072957,313,72
1072967,322,72
1072977,288,72
1072987,303,72
1072998,319,72
1073007,288,72
1073017,329,72
1073027,310,72
1073037,306,72
1073049,340,72
1073059,302,72
1073069,336,72
1073079,333,72
1073089,314,72
1073100,357,72
1073111,328,72
1073121,346,72
1073131,367,72
1073140,338,72
1073152,379,72
1073162,362,72
1073171,359,72
1073183,385,72
1073191,331,72
1073203,340,72
1073212,323,72
1073224,288,72
1073233,322,72
1073243,287,72
1073254,298,72
1073264,316,72
1073275,281,72
1073285,318,72
1073294,301,72
1073305,293,72
1073313,328,72
1073326,290,72
1073335,316,72
1073347,314,72
1073357,289,72
1073368,327,72
1073377,297,72
1073388,305,72
1073397,326,72
1073407,288,72
1073419,326,72
1073428,310,72
1073439,297,72
1073449,328,72
1073460,291,72
1073470,317,72
1073479,320,72
1073489,291,72
1073501,328,72
1073510,301,72
1073521,308,72
1073531,332,72
1073542,293,72
1073551,328,72
1073561,314,72
1073573,304,72
1073581,336,72
1073593,300,72
1073603,323,72
1073613,328,72
1073624,301,72
1073635,340,72
1073644,313,72
1073653,314,72
1073662,338,72
1073674,300,72
1073686,339,72
1073695,333,72
1073706,315,72
1073716,350,72
1073726,310,72
1073737,330,72
1073747,337,72
1073757,302,72
1073767,342,72
1073777,314,72
1073788,317,72
1073797,326,72
1073809,250,72
1073819,366,72
1073829,580,71
1073839,652,71
1073850,626,71
1073859,241,71
1073869,326,71
1073879,326,71
1073887,280,71
1073901,323,71
1073911,301,71
1073921,302,71
1073932,332,71
1073941,296,71
1073953,329,71
1073963,325,71
1073973,307,71
1073983,346,71
1073993,312,71
1074004,336,71
1074015,351,71
1074023,324,71
1074033,365,71
1074044,349,71
1074054,354,71
1074065,386,71
1074075,345,71
1074085,380,71
1074095,375,71
1074105,341,71
1074117,360,71
1074127,307,71
1074137,302,71
1074147,309,71
1074157,276,71
1074168,314,71
1074177,287,71
1074187,285,71
1074199,317,71
1074209,282,71
1074218,306,71
1074229,302,71
1074239,291,71
1074250,323,71
1074261,293,71
1074270,304,71
1074281,316,71
1074291,288,71
1074302,327,71
1074311,296,71
1074321,301,71
1074332,324,71
1074342,292,71
1074351,315,71
1074363,323,71
1074372,306,71
1074383,334,71
1074394,307,71
1074404,325,71
1074414,333,71
1074425,304,71
1074435,337,71
1074445,322,71
1074454,322,71
1074466,339,71
1074476,316,71
1074485,337,71
1074495,328,71
1074507,305,71
1074517,345,71
1074527,309,71
1074537,333,71
1074547,347,71
1074557,310,71
1074568,342,71
1074577,321,71
1074587,314,71
1074599,328,71
1074609,196,71
1074620,255,71
1074629,298,71
1074639,295,71
1074651,288,71
1074661,275,71
1074670,440,71
1074680,637,71
1074690,648,71
1074702,379,71
1074711,291,71
1074721,376,71
1074732,341,71
1074743,364,71
1074752,378,71
1074763,342,71
1074773,414,71
1074783,359,71
1074794,380,71
1074805,401,71
1074811,344,71
1074824,394,71
1074834,367,71
1074845,357,71
1074855,407,71
1074865,349,71
1074876,396,71
1074887,408,71
1074897,369,71
1074907,422,71
1074917,385,71
1074927,393,71
1074938,425,71
1074947,357,71
1074957,387,71
1074969,353,71
1074979,312,71
1074989,345,71
1074999,300,71
1075009,313,71
1075019,325,71
1075029,286,71
1075040,336,71
1075049,306,71
1075061,310,71
1075071,346,71
1075081,309,71
1075091,338,71
1075102,335,71
1075111,308,71
1075123,343,71
1075133,310,71
1075143,320,71
1075154,327,71
1075162,296,71
1075174,326,71
1075184,304,71
1075193,297,71
1075205,331,71
1075213,296,71
1075225,312,71
1075236,312,71
1075245,283,71
1075256,319,71
1075266,289,71
1075277,295,71
1075287,314,71
1075297,277,71
1075307,313,71
1075317,307,71
1075328,301,71
1075337,325,71
1075349,291,71
1075359,313,71
1075369,313,71
1075379,287,71
1075389,325,71
1075399,303,71
1075410,302,71
1075419,319,71
1075431,255,71
1075441,335,71
1075451,517,72
1075460,618,72
1075472,551,72
1075482,238,72
1075491,311,72
1075503,335,72
1075512,294,72
1075523,342,72
1075533,317,72
1075544,323,72
1075554,353,72
1075563,320,72
1075575,350,72
1075584,354,72
1075594,330,72
1075605,375,72
1075614,338,72
1075625,367,72
1075635,367,72
1075646,358,72
1075657,392,72
1075667,385,72
1075677,380,72
1075687,416,72
1075697,374,72
1075707,406,72
1075717,397,72
1075729,355,72
1075739,386,72
1075747,330,72
1075759,342,72
1075769,362,72
1075780,305,72
1075790,345,72
1075799,327,72
1075810,317,72
1075821,357,72
1075831,318,72
1075841,358,72
1075851,341,72
1075861,325,72
1075871,373,72
1075881,323,72
1075893,350,72
1075903,370,72
1075913,303,72
1075923,371,72
1075933,323,72
1075944,331,72
1075953,368,72
1075962,295,72
1075975,359,72
1075984,324,72
1075994,303,72
1076003,359,72
1076015,299,72
1076026,332,72
1076035,329,72
1076044,288,72
1076057,357,72
1076067,316,72
1076077,319,72
1076087,361,72
1076097,283,72
1076108,346,72
1076117,339,72
1076129,304,72
1076139,359,72
1076149,301,72
1076159,319,72
1076169,342,72
1076180,234,72
1076190,371,72
1076201,539,72
1076210,646,72
1076221,574,72
1076231,226,72
1076241,347,72
1076252,329,72
1076262,274,72
1076271,366,72
1076282,295,72
1076293,328,72
1076303,356,72
1076312,293,72
1076323,352,72
1076334,336,72
1076344,310,72
1076354,376,72
1076364,304,72
1076375,354,72
1076384,353,72
1076396,325,72
1076405,395,72
1076417,311,72
1076425,369,72
1076435,385,72
1076447,316,72
1076457,398,72
1076467,355,72
1076478,303,72
1076487,374,72
1076498,284,72
1076508,317,72
1076519,316,72
1076529,253,72
1076538,365,72
1076549,269,72
1076559,302,72
1076569,338,72
1076580,256,72
1076589,341,72
1076601,286,72
1076609,301,72
1076622,349,72
1076632,265,72
1076640,323,72
1076652,321,72
1076662,254,72
1076672,373,72
1076683,265,72
1076693,292,72
1076703,339,72
1076714,238,72
1076724,350,72
1076734,280,72
1076745,261,72
1076755,375,72
1076764,226,72
1076774,311,72
1076785,325,72
1076795,244,72
1076806,361,72
1076814,258,72
1076823,297,72
1076837,376,72
1076848,236,72
1076857,359,72
1076867,303,72
1076877,258,72
1076887,387,72
1076898,244,72
1076909,321,72
1076919,342,72
1076930,217,72
1076939,329,72
1076949,302,72
1076959,523,73
1076969,652,73
1076979,466,73
1076991,305,73
1077001,315,73
1077011,259,73
1077021,383,73
1077033,251,73
1077041,327,73
1077052,368,73
1077063,248,73
1077073,389,73
1077083,296,73
1077093,305,73
1077103,413,73
1077114,257,73
1077124,395,73
1077135,351,73
1077145,283,73
1077155,428,73
1077166,304,73
1077175,371,73
1077185,423,73
1077195,294,73
1077205,453,73
1077217,355,73
1077227,350,73
1077237,436,73
1077247,283,73
1077257,403,73
1077268,355,73
1077277,272,73
1077289,414,73
1077299,286,73
1077307,341,73
1077320,403,73
1077329,264,73
1077339,420,73
1077351,344,73
1077360,299,73
1077370,408,73
1077379,265,73
1077391,364,73
1077402,337,73
1077412,258,73
1077422,405,73
1077432,254,73
1077443,317,73
1077453,369,73
1077462,240,73
1077473,363,73
1077483,298,73
1077493,265,73
1077504,390,73
1077515,239,73
1077525,333,73
1077534,335,73
1077545,223,73
1077556,372,73
1077565,249,73
1077576,294,73
1077585,374,73
1077597,214,73
1077607,363,73
1077617,296,73
1077627,236,73
1077637,397,73
1077648,225,73
1077657,327,73
1077667,337,73
1077679,188,73
1077689,371,73
1077699,408,73
1077710,616,74
1077720,652,74
1077730,231,74
1077740,342,74
1077751,308,74
1077759,245,74
1077769,396,74
1077781,228,74
1077792,322,74
1077801,344,74
1077811,218,74
1077822,393,74
1077833,271,74
1077843,278,74
1077853,385,74
1077863,211,74
1077873,371,74
1077883,305,74
1077894,239,74
1077905,396,74
1077915,253,74
1077924,322,74
1077933,363,74
1077945,244,74
1077956,403,74
1077966,286,74
1077975,286,74
1077987,383,74
1077997,178,74
1078007,326,74
1078018,286,74
1078027,200,74
1078037,359,74
1078047,214,74
1078057,278,74
1078069,341,74
1078079,186,74
1078090,373,74
1078100,273,74
1078109,257,74
1078121,395,74
1078131,216,74
1078139,354,74
1078151,318,74
1078161,233,74
1078171,399,74
1078181,251,74
1078192,313,74
1078202,374,74
1078213,218,74
1078222,390,74
1078233,288,74
1078242,268,74
1078254,388,74
1078264,239,74
1078273,350,74
1078283,334,74
1078295,230,74
1078303,404,74
1078315,254,74
1078324,324,74
1078334,387,74
