Timestamp,ECGValue,BPM
1258397,334,65
1258408,326,65
1258418,316,65
1258425,340,65
1258439,321,65
1258443,332,65
1258459,338,65
1258470,320,65
1258478,360,65
1258490,401,65
1258492,490,65
1258509,414,65
1258521,267,65
1258531,334,65
1258541,335,65
1258552,317,65
1258562,346,65
1258572,320,65
1258583,333,65
1258592,340,65
1258592,322,65
1258608,347,65
1258624,333,65
1258626,335,65
1258642,356,65
1258642,333,65
1258665,358,65
1258675,359,65
1258685,350,65
1258693,386,65
1258693,371,65
1258708,391,65
1258726,406,65
1258735,387,65
1258742,411,65
1258757,371,65
1258767,344,65
1258775,340,65
1258788,302,65
1258798,317,65
1258808,309,65
1258819,297,65
1258826,322,65
1258839,298,65
1258849,310,65
1258859,314,65
1258870,295,65
1258876,321,65
1258890,305,65
1258901,303,65
1258909,323,65
1258922,297,65
1258929,320,65
1258942,313,65
1258942,303,65
1258962,330,65
1258973,305,65
1258975,319,65
1258992,329,65
1258992,301,65
1259008,330,65
1259024,313,65
1259033,313,65
1259043,334,65
1259043,308,65
1259065,330,65
1259075,322,65
1259084,314,65
1259093,337,65
1259093,314,65
1259109,331,65
1259126,338,65
1259133,323,65
1259147,347,65
1259157,320,65
1259162,316,65
1259176,335,65
1259189,309,65
1259192,335,65
1259209,326,65
1259209,315,65
1259229,343,65
1259239,318,65
1259250,327,65
1259259,336,65
1259270,313,65
1259281,341,65
1259291,323,65
1259301,334,65
1259308,398,65
1259321,472,65
1259332,428,65
1259342,301,65
1259352,295,65
1259362,345,65
1259373,311,65
1259383,330,65
1259393,339,65
1259403,319,65
1259414,344,65
1259424,331,65
1259435,332,65
1259442,349,65
1259455,328,65
1259465,353,65
1259475,348,65
1259475,339,65
1259493,368,65
1259506,349,65
1259516,371,65
1259525,388,65
1259537,371,65
1259542,404,65
1259557,390,65
1259567,390,65
1259576,390,65
1259588,335,65
1259594,340,65
1259609,320,65
1259619,300,65
1259626,320,65
1259640,294,65
1259650,306,65
1259659,316,65
1259663,289,65
1259675,316,65
1259691,302,65
1259701,300,65
1259708,320,65
1259722,296,65
1259732,317,65
1259742,314,65
1259752,304,65
1259763,329,65
1259774,308,65
1259784,318,65
1259792,328,65
1259792,304,65
1259809,329,65
1259824,316,65
1259835,314,65
1259842,334,65
1259855,305,65
1259863,327,65
1259875,322,65
1259886,307,65
1259892,333,65
1259907,308,65
1259909,318,65
1259925,330,65
1259938,309,65
1259942,334,65
1259959,319,65
1259969,326,65
1259975,343,65
1259990,322,65
1259992,340,65
1260008,325,65
1260020,311,65
1260030,341,65
1260040,318,65
1260042,326,65
1260059,334,65
1260063,312,65
1260076,336,65
1260091,318,65
1260102,318,65
1260109,337,65
1260122,311,65
1260133,331,65
1260143,333,65
1260143,331,65
1260163,446,65
1260175,510,65
1260176,428,65
1260193,275,65
1260193,302,65
1260210,332,65
1260225,315,65
1260226,312,65
1260243,338,65
1260243,310,65
1260266,330,65
1260276,331,65
1260287,316,65
1260297,343,65
1260307,320,65
1260318,334,65
1260326,345,65
1260339,329,65
1260348,358,65
1260359,348,65
1260369,355,65
1260378,384,65
1260389,364,65
1260400,388,65
1260409,388,65
1260419,373,65
1260426,378,65
1260440,334,65
1260441,327,65
1260459,324,65
1260471,293,65
1260481,317,65
1260492,302,65
1260502,300,65
1260509,320,65
1260523,294,65
1260533,317,65
1260541,315,65
1260541,302,65
1260563,327,65
1260575,302,65
1260575,313,65
1260593,322,65
1260605,300,65
1260616,329,65
1260625,313,65
1260633,313,65
1260643,334,65
1260656,304,65
1260663,323,65
1260675,322,65
1260687,305,65
1260692,336,65
1260707,313,65
1260717,322,65
1260726,332,65
1260738,308,65
1260742,336,65
1260758,320,65
1260769,320,65
1260779,337,65
1260790,309,65
1260800,332,65
1260808,332,65
1260821,312,65
1260828,341,65
1260841,318,65
1260841,327,65
1260859,335,65
1260871,316,65
1260882,350,65
1260893,335,65
1260893,336,65
1260908,350,65
1260925,314,65
1260926,336,65
1260941,333,65
1260953,314,65
1260964,343,65
1260974,320,65
1260985,328,65
1260992,338,65
1261006,316,65
1261016,342,65
1261025,328,65
1261036,323,65
1261041,342,65
1261057,325,65
1261067,365,65
1261077,470,66
1261087,518,66
1261093,424,66
1261093,252,66
1261109,326,66
1261126,337,66
1261136,310,66
1261143,337,66
1261158,327,66
1261169,325,66
1261176,345,66
1261184,318,66
1261192,340,66
1261209,336,66
1261209,324,66
1261231,349,66
1261241,332,66
1261242,342,66
1261259,362,66
1261264,341,66
1261276,375,66
1261293,370,66
1261293,376,66
1261310,404,66
1261324,378,66
1261334,392,66
1261342,369,66
1261355,331,66
1261365,339,66
1261375,309,66
1261385,310,66
1261392,319,66
1261406,295,66
1261416,320,66
1261426,306,66
1261437,302,66
1261442,323,66
1261458,300,66
1261467,317,66
1261475,317,66
1261475,300,66
1261492,329,66
1261508,307,66
1261519,315,66
1261525,326,66
1261540,301,66
1261550,328,66
1261559,316,66
1261571,312,66
1261576,333,66
1261591,307,66
1261600,325,66
1261608,327,66
1261621,311,66
1261632,334,66
1261642,314,66
1261643,322,66
1261659,333,66
1261672,310,66
1261683,334,66
1261693,324,66
1261703,315,66
1261709,338,66
1261709,312,66
1261734,333,66
1261742,331,66
1261749,317,66
1261765,342,66
1261775,322,66
1261785,327,66
1261790,340,66
1261806,314,66
1261816,339,66
1261826,329,66
1261835,324,66
1261847,347,66
1261852,322,66
1261868,336,66
1261878,341,66
1261885,330,66
1261898,355,66
1261908,336,66
1261918,336,66
1261930,338,66
1261936,312,66
1261936,341,66
1261960,327,66
1261968,320,66
1261981,343,66
1261990,317,66
1262001,333,66
1262011,334,66
1262018,315,66
1262032,345,66
1262042,320,66
1262052,329,66
1262063,340,66
1262068,330,66
1262083,420,65
1262094,533,65
1262101,496,65
1262113,315,65
1262119,288,65
1262119,337,65
1262145,328,65
1262151,311,65
1262165,339,65
1262176,319,65
1262186,324,65
1262196,340,65
1262206,316,65
1262216,342,65
1262227,335,65
1262235,331,65
1262247,356,65
1262252,333,65
1262268,354,65
1262279,362,65
1262286,350,65
1262299,386,65
1262302,375,65
1262318,389,65
1262330,409,65
1262335,380,65
1262335,392,65
1262361,356,65
1262368,331,65
1262381,333,65
1262391,305,65
1262401,314,65
1262401,313,65
1262421,299,65
1262432,324,65
1262436,306,65
1262452,308,65
1262463,324,65
1262473,298,65
1262484,322,65
1262494,313,65
1262501,307,65
1262501,328,65
1262518,303,65
1262534,319,65
1262545,327,65
1262552,308,65
1262566,334,65
1262568,314,65
1262584,318,65
1262596,334,65
1262602,310,65
1262617,333,65
1262627,323,65
1262635,314,65
1262639,338,65
1262652,315,65
1262668,329,65
1262679,333,65
1262685,314,65
1262699,340,65
1262709,318,65
1262718,322,65
1262730,332,65
1262735,310,65
1262751,333,65
1262761,324,65
1262769,317,65
1262781,341,65
1262792,317,65
1262802,333,65
1262812,337,65
1262819,318,65
1262833,344,65
1262842,323,65
1262852,329,65
1262852,344,65
1262869,320,65
1262884,353,65
1262885,344,65
1262902,336,65
1262915,356,65
1262924,319,65
1262934,334,65
1262946,338,65
1262951,317,65
1262966,341,65
1262969,320,65
1262985,324,65
1262989,340,65
1263002,310,65
1263017,336,65
1263028,331,65
1263036,319,65
1263036,344,65
1263052,320,65
1263068,352,65
1263079,428,65
1263085,522,65
1263099,486,65
1263102,272,65
1263119,311,65
1263128,347,65
1263141,315,65
1263151,341,65
1263161,332,65
1263169,323,65
1263176,350,65
1263185,326,65
1263202,341,65
1263202,346,65
1263218,328,65
1263228,357,65
1263235,340,65
1263252,346,65
1263264,365,65
1263274,344,65
1263284,376,65
1263294,377,65
1263302,377,65
1263302,408,65
1263325,388,65
1263336,397,65
1263336,386,65
1263351,343,65
1263366,350,65
1263369,319,65
1263385,316,65
1263385,328,65
1263403,302,65
1263403,324,65
1263428,315,65
1263435,303,65
1263448,329,65
1263459,307,65
1263468,320,65
1263477,326,65
1263485,307,65
1263499,331,65
1263502,313,65
1263518,314,65
1263530,331,65
1263541,306,65
1263551,330,65
1263561,322,65
1263569,310,65
1263582,334,65
1263592,309,65
1263601,322,65
1263612,328,65
1263619,307,65
1263633,336,65
1263643,318,65
1263652,316,65
1263664,332,65
1263669,309,65
1263685,335,65
1263694,327,65
1263701,316,65
1263716,340,65
1263718,316,65
1263736,331,65
1263746,337,65
1263752,315,65
1263767,344,65
1263777,330,65
1263786,326,65
1263786,351,65
1263801,326,65
1263818,347,65
1263827,339,65
1263835,321,65
1263835,340,65
1263852,318,65
1263869,327,65
1263880,335,65
1263885,314,65
1263899,337,65
1263911,321,65
1263918,321,65
1263932,339,65
1263941,316,65
1263952,337,65
1263953,330,65
1263969,320,65
1263982,361,65
1263993,379,65
1264002,493,65
1264013,447,65
1264018,285,65
1264033,317,65
1264044,328,65
1264052,318,65
1264052,338,65
1264070,316,65
1264084,339,65
1264095,335,65
1264101,323,65
1264116,349,65
1264126,326,65
1264135,338,65
1264135,348,65
1264151,328,65
1264167,360,65
1264177,352,65
1264185,355,65
1264198,379,65
1264203,365,65
1264218,396,65
1264229,395,65
1264235,390,65
1264235,410,65
1264252,368,65
1264268,358,65
1264278,346,65
1264290,307,65
1264301,323,65
1264312,304,65
1264318,302,65
1264332,322,65
1264342,293,65
1264352,313,65
1264362,309,65
1264368,293,65
1264383,320,65
1264393,298,65
1264402,310,65
1264414,319,65
1264419,298,65
1264434,323,65
1264436,312,65
1264451,307,65
1264465,328,65
1264473,305,65
1264486,324,65
1264496,325,65
1264506,309,65
1264516,335,65
1264518,311,65
1264535,320,65
1264539,331,65
1264557,308,65
1264567,330,65
1264577,319,65
1264584,314,65
1264598,334,65
1264609,304,65
1264619,330,65
1264629,327,65
1264639,313,65
1264650,338,65
1264651,320,65
1264669,333,65
1264681,344,65
1264687,321,65
1264702,339,65
1264711,316,65
1264718,317,65
1264731,338,65
1264742,312,65
1264751,330,65
1264763,326,65
1264768,313,65
1264783,339,65
1264789,313,65
1264802,328,65
1264814,335,65
1264819,313,65
1264835,342,65
1264835,344,65
1264853,380,65
1264864,501,65
1264876,410,65
1264884,303,65
1264896,311,65
1264902,316,65
1264902,332,65
1264919,318,65
1264935,324,65
1264947,340,65
1264958,316,65
1264967,344,65
1264978,330,65
1264984,329,65
1264999,349,65
1265009,323,65
1265018,349,65
1265030,349,65
1265035,337,65
1265040,369,65
1265060,355,65
1265069,372,65
1265077,395,65
1265086,376,65
1265102,407,65
1265103,389,65
1265119,366,65
1265129,365,65
1265143,321,65
1265151,322,65
1265151,314,65
1265169,294,65
1265178,317,65
1265185,296,65
1265202,299,65
1265215,313,65
1265225,290,65
1265235,315,65
1265245,301,65
1265252,297,65
1265265,319,65
1265276,296,65
1265285,313,65
1265296,315,65
1265302,301,65
1265318,329,65
1265327,307,65
1265335,313,65
1265348,320,65
1265358,300,65
1265368,325,65
1265378,311,65
1265386,305,65
1265399,330,65
1265401,305,65
1265419,322,65
1265429,325,65
1265440,306,65
1265451,331,65
1265461,308,65
1265469,316,65
1265480,331,65
1265489,308,65
1265502,340,65
1265512,328,65
1265519,323,65
1265533,342,65
1265540,307,65
1265552,329,65
1265563,325,65
1265568,310,65
1265584,336,65
1265594,316,65
1265602,316,65
1265614,332,65
1265618,306,65
1265635,332,65
1265646,324,65
1265652,316,65
1265666,339,65
1265676,324,65
1265684,381,65
1265696,489,66
1265707,430,66
1265717,332,66
1265728,286,66
1265735,326,66
1265738,331,66
1265751,311,66
1265769,337,66
1265778,328,66
1265785,318,66
1265800,347,66
1265802,318,66
1265819,338,66
1265828,340,66
1265841,324,66
1265850,354,66
1265852,338,66
1265869,346,66
1265882,368,66
1265892,349,66
1265901,381,66
1265912,380,66
1265919,385,66
1265932,414,66
1265944,382,66
1265952,379,66
1265952,361,66
1265969,321,66
1265984,333,66
1265995,308,66
1266001,306,66
1266015,318,66
1266025,291,66
1266034,318,66
1266045,309,66
1266056,297,66
1266066,323,66
1266069,298,66
1266085,313,66
1266097,314,66
1266108,298,66
1266118,324,66
1266127,306,66
1266135,311,66
1266148,326,66
1266158,303,66
1266169,327,66
1266180,317,66
1266188,309,66
1266200,334,66
1266202,308,66
1266219,325,66
1266231,330,66
1266235,308,66
1266251,335,66
1266262,317,66
1266269,319,66
1266282,336,66
1266286,309,66
1266302,332,66
1266302,325,66
1266320,316,66
1266333,341,66
1266343,318,66
1266352,330,66
1266364,339,66
1266374,322,66
1266385,350,66
1266395,336,66
1266402,334,66
1266416,337,66
1266426,312,66
1266435,336,66
1266446,330,66
1266452,315,66
1266452,340,66
1266469,314,66
1266487,329,66
1266497,332,66
1266508,313,66
1266518,341,66
1266529,320,66
1266536,326,66
1266549,347,66
1266559,339,66
1266569,458,66
1266579,518,66
1266590,410,66
1266591,279,66
1266610,312,66
1266618,327,66
1266631,332,66
1266635,309,66
1266651,340,66
1266662,323,66
1266670,323,66
1266682,344,66
1266692,318,66
1266701,342,66
1266714,336,66
1266723,328,66
1266733,352,66
1266744,330,66
1266752,348,66
1266765,362,66
1266770,346,66
1266785,384,66
1266794,375,66
1266802,382,66
1266815,401,66
1266826,374,66
1266835,374,66
1266846,343,66
1266852,318,66
1266867,332,66
1266878,302,66
1266885,311,66
1266888,318,66
1266902,299,66
1266918,324,66
1266928,308,66
1266937,308,66
1266950,327,66
1266960,303,66
1266970,323,66
1266976,313,66
1266985,305,66
1267001,330,66
1267011,307,66
1267019,318,66
1267028,324,66
1267036,303,66
1267052,330,66
1267062,315,66
1267070,313,66
1267083,332,66
1267092,307,66
1267101,325,66
1267113,324,66
1267124,310,66
1267134,339,66
1267144,313,66
1267152,323,66
1267152,334,66
1267175,308,66
1267185,335,66
1267185,321,66
1267202,317,66
1267202,336,66
1267218,310,66
1267235,332,66
1267235,329,66
1267251,312,66
1267267,342,66
1267278,321,66
1267285,331,66
1267285,339,66
1267302,316,66
1267319,347,66
1267328,337,66
1267336,334,66
1267349,356,66
1267352,324,66
1267370,333,66
1267380,334,66
1267384,318,66
1267402,344,66
1267411,322,66
1267418,330,66
1267432,340,66
1267437,316,66
1267452,344,66
1267452,326,66
1267470,327,66
1267483,345,66
1267485,321,66
1267502,347,66
1267502,370,66
1267519,472,66
1267535,532,66
1267545,370,66
1267552,266,66
1267564,340,66
1267574,306,66
1267584,336,66
1267596,321,66
1267602,318,66
1267602,337,66
1267627,314,66
1267635,334,66
1267647,331,66
1267658,318,66
1267668,349,66
1267678,326,66
1267685,336,66
1267699,353,66
1267709,336,66
1267718,368,66
1267729,361,66
1267737,368,66
1267750,397,66
1267760,378,66
1267770,400,66
1267780,389,66
1267790,351,66
1267802,357,66
1267812,315,66
1267818,318,66
1267833,321,66
1267842,294,66
1267852,317,66
1267863,308,66
1267870,303,66
1267870,326,66
1267885,300,66
1267902,318,66
1267915,318,66
1267924,301,66
1267935,325,66
1267945,304,66
1267952,315,66
1267966,326,66
1267976,303,66
1267985,330,66
1267988,312,66
1268007,311,66
1268017,335,66
1268026,308,66
1268036,326,66
1268048,326,66
1268052,306,66
1268068,333,66
1268078,314,66
1268085,321,66
1268098,330,66
1268109,311,66
1268118,335,66
1268127,324,66
1268135,315,66
1268150,338,66
1268161,312,66
1268171,332,66
1268177,333,66
1268191,318,66
1268202,344,66
1268202,325,66
1268219,331,66
1268229,343,66
1268243,317,66
1268252,343,66
1268263,330,66
1268271,321,66
1268284,344,66
1268294,318,66
1268302,335,66
1268302,337,66
1268318,318,66
1268335,344,66
1268337,326,66
1268352,330,66
1268366,349,66
1268371,328,66
1268386,352,66
1268396,341,66
1268402,329,66
1268402,342,66
1268428,319,66
1268435,335,66
1268448,338,66
1268452,319,66
1268468,344,66
1268480,324,66
1268486,325,66
1268500,343,66
1268502,315,66
1268519,338,66
1268530,329,66
1268539,322,66
1268551,352,66
1268552,350,66
1268569,483,64
1268582,536,64
1268592,381,64
1268602,275,64
1268612,325,64
1268622,322,64
1268632,335,64
1268639,309,64
1268651,334,64
1268663,325,64
1268674,318,64
1268684,344,64
1268694,319,64
1268702,333,64
1268715,339,64
1268725,323,64
1268735,350,64
1268736,336,64
1268752,345,64
1268766,366,64
1268777,351,64
1268785,384,64
1268798,383,64
1268807,382,64
1268818,411,64
1268828,379,64
1268834,374,64
1268848,355,64
1268852,316,64
1268869,332,64
1268879,305,64
1268888,306,64
1268900,322,64
1268910,296,64
1268919,321,64
1268931,312,64
1268936,303,64
1268952,330,64
1268952,303,64
1268972,315,64
1268981,321,64
1268985,301,64
1269001,328,64
1269013,310,64
1269019,311,64
1269034,328,64
1269035,304,64
1269051,327,64
1269064,320,64
1269074,311,64
1269084,334,64
1269095,308,64
1269101,324,64
1269115,328,64
1269119,309,64
1269135,332,64
1269147,320,64
1269152,323,64
1269167,337,64
1269176,309,64
1269186,335,64
1269186,327,64
1269202,315,64
1269217,340,64
1269219,315,64
1269235,329,64
1269249,336,64
1269252,317,64
1269269,341,64
1269280,321,64
1269285,329,64
1269300,343,64
1269310,318,64
1269318,341,64
1269331,333,64
1269337,322,64
1269352,348,64
1269362,324,64
1269372,335,64
1269382,350,64
1269393,331,64
1269402,356,64
1269412,338,64
1269423,333,64
1269434,342,64
1269439,318,64
1269453,340,64
1269465,335,64
1269472,320,64
1269485,346,64
1269495,321,64
1269502,334,64
1269516,341,64
1269519,320,64
1269535,346,64
1269547,329,64
1269552,327,64
1269567,358,64
1269577,386,64
1269585,529,63
1269597,491,63
1269608,299,63
1269619,316,63
1269626,331,63
1269635,331,63
1269649,340,63
1269660,316,63
1269669,343,63
1269680,330,63
1269684,327,63
1269701,348,63
1269710,322,63
1269718,345,63
1269731,344,63
1269742,334,63
1269752,361,63
1269753,342,63
1269769,361,63
1269783,374,63
1269793,360,63
1269802,397,63
1269813,390,63
1269819,391,63
1269835,413,63
1269835,376,63
1269852,373,63
1269852,350,63
1269873,319,63
1269885,333,63
1269885,306,63
1269902,313,63
1269916,324,63
1269926,300,63
1269934,326,63
1269946,310,63
1269957,307,63
1269967,329,63
1269977,299,63
1269987,320,63
1269998,318,63
1270002,304,63
1270018,330,63
1270028,309,63
1270035,319,63
1270049,330,63
1270060,305,63
1270068,332,63
1270080,318,63
1270091,316,63
1270100,335,63
1270102,312,63
1270119,328,63
1270132,325,63
1270135,310,63
1270152,332,63
1270152,314,63
1270173,325,63
1270183,334,63
1270185,313,63
1270202,336,63
1270202,324,63
1270219,318,63
1270234,339,63
1270245,312,63
1270252,331,63
1270252,328,63
1270273,313,63
1270285,340,63
1270296,314,63
1270301,332,63
1270301,340,63
1270319,317,63
1270336,348,63
1270348,335,63
1270351,335,63
1270368,345,63
1270378,310,63
1270385,332,63
1270399,330,63
1270402,313,63
1270419,341,63
1270429,314,63
1270435,319,63
1270435,335,63
1270452,309,63
1270468,337,63
1270480,325,63
1270485,320,63
1270501,339,63
1270512,328,63
1270518,372,63
1270531,473,63
1270542,452,63
1270552,349,63
1270563,270,63
1270568,324,63
1270574,330,63
1270594,311,63
1270602,336,63
1270602,323,63
1270624,319,63
1270635,342,63
1270635,321,63
1270652,338,63
1270667,341,63
1270675,325,63
1270686,355,63
1270696,337,63
1270705,348,63
1270717,361,63
1270727,347,63
1270735,380,63
1270747,379,63
1270752,380,63
1270768,406,63
1270778,383,63
1270786,389,63
1270786,367,63
1270803,326,63
1270819,333,63
1270829,306,63
1270840,305,63
1270850,318,63
1270861,292,63
1270868,314,63
1270881,304,63
1270891,298,63
1270901,318,63
1270911,291,63
1270918,312,63
1270932,311,63
1270937,296,63
1270951,327,63
1270964,305,63
1270968,312,63
1270983,324,63
1270994,304,63
1271002,327,63
1271014,315,63
1271019,306,63
1271035,329,63
1271045,306,63
1271052,321,63
1271052,323,63
1271076,301,63
1271085,332,63
1271085,309,63
1271101,313,63
1271117,329,63
1271127,303,63
1271134,329,63
1271148,318,63
1271158,310,63
1271168,340,63
1271179,310,63
1271185,328,63
1271199,335,63
1271202,323,63
1271219,350,63
1271219,326,63
1271236,320,63
1271245,331,63
1271261,309,63
1271269,333,63
1271278,324,63
1271292,315,63
1271302,341,63
1271302,316,63
1271320,327,63
1271333,329,63
1271343,313,63
1271352,339,63
1271352,320,63
1271374,335,63
1271384,365,63
1271394,412,64
1271401,493,64
1271415,362,64
1271425,260,64
1271435,341,64
1271435,314,64
1271451,330,64
1271466,336,64
1271477,316,64
1271485,346,64
1271485,326,64
1271502,331,64
1271502,350,64
1271518,323,64
1271534,353,64
1271549,346,64
1271559,339,64
1271568,364,64
1271579,344,64
1271585,365,64
1271585,380,64
1271602,368,64
1271619,405,64
1271628,392,64
1271636,395,64
1271651,406,64
1271655,357,64
1271668,353,64
1271681,328,64
1271692,307,64
1271702,327,64
1271713,295,64
1271719,307,64
1271733,313,64
1271744,296,64
1271752,321,64
1271764,301,64
1271774,301,64
1271785,321,64
1271794,294,64
1271801,320,64
1271815,313,64
1271825,303,64
1271835,331,64
1271846,305,64
1271852,318,64
1271867,324,64
1271877,304,64
1271886,334,64
1271886,315,64
1271908,312,64
1271918,331,64
1271928,300,64
1271935,329,64
1271949,324,64
1271952,309,64
1271968,336,64
1271980,312,64
1271985,327,64
1272000,330,64
1272010,307,64
1272018,337,64
1272030,319,64
1272041,324,64
1272051,347,64
1272062,321,64
1272068,344,64
1272082,333,64
1272087,310,64
1272102,338,64
1272102,312,64
1272119,327,64
1272133,335,64
1272144,315,64
1272152,339,64
1272165,320,64
1272174,320,64
1272185,340,64
1272195,316,64
1272201,337,64
1272216,333,64
1272226,329,64
1272235,392,64
1272238,481,65
1272251,468,65
1272267,340,65
1272277,278,65
1272285,342,65
1272298,321,65
1272309,323,65
1272318,340,65
1272328,318,65
1272335,340,65
1272339,336,65
1272352,324,65
1272369,348,65
1272378,330,65
1272386,342,65
1272386,354,65
1272403,334,65
1272419,360,65
1272429,351,65
1272436,359,65
1272451,388,65
1272462,369,65
1272469,396,65
1272483,396,65
1272492,383,65
1272501,394,65
1272513,347,65
1272519,335,65
1272534,333,65
1272544,300,65
1272551,321,65
1272564,305,65
1272575,300,65
1272585,321,65
1272595,296,65
1272602,316,65
1272602,311,65
1272619,296,65
1272635,324,65
1272635,301,65
1272657,311,65
1272667,320,65
1272678,296,65
1272685,326,65
1272697,312,65
1272708,308,65
1272718,331,65
1272729,305,65
1272739,324,65
1272749,320,65
1272753,304,65
1272768,331,65
1272780,306,65
1272791,317,65
1272801,329,65
1272810,306,65
1272819,332,65
1272832,320,65
1272842,316,65
1272852,336,65
1272862,307,65
1272868,331,65
1272883,325,65
1272893,312,65
1272902,338,65
1272913,318,65
1272918,326,65
1272934,338,65
1272945,321,65
1272952,347,65
1272952,335,65
1272976,331,65
1272985,339,65
1272996,313,65
1273002,334,65
1273016,332,65
1273027,313,65
1273035,339,65
1273048,320,65
1273057,326,65
1273068,339,65
1273078,315,65
1273087,340,65
1273098,324,65
1273102,322,65
1273119,349,65
1273129,342,65
1273139,456,65
1273150,521,65
1273161,410,65
1273168,278,65
1273181,318,65
1273191,324,65
1273201,334,65
1273202,310,65
1273218,336,65
1273232,325,65
1273235,321,65
1273252,341,65
1273252,314,65
1273269,336,65
1273278,338,65
1273286,319,65
1273302,350,65
1273314,333,65
1273318,344,65
1273334,364,65
1273345,347,65
1273352,380,65
1273365,375,65
1273375,379,65
1273385,404,65
1273397,375,65
1273402,372,65
1273417,352,65
1273426,316,65
1273435,334,65
1273435,306,65
1273458,306,65
1273467,320,65
1273479,297,65
1273486,320,65
1273499,310,65
1273509,305,65
1273518,328,65
1273530,302,65
1273539,320,65
1273539,323,65
1273561,300,65
1273568,329,65
1273581,310,65
1273591,313,65
1273601,325,65
1273602,302,65
1273618,329,65
1273632,318,65
1273636,311,65
1273652,333,65
1273652,308,65
1273669,324,65
1273683,327,65
1273694,307,65
1273702,334,65
1273714,317,65
1273725,318,65
1273735,336,65
1273735,310,65
1273752,332,65
1273752,326,65
1273769,319,65
1273785,342,65
1273797,316,65
1273802,332,65
1273816,336,65
1273825,318,65
1273835,340,65
1273847,322,65
1273858,329,65
1273868,342,65
1273879,316,65
1273885,340,65
1273899,327,65
1273901,320,65
1273918,342,65
1273918,316,65
1273935,336,65
1273950,340,65
1273960,321,65
1273968,356,65
1273981,338,65
1273992,342,65
1274002,356,65
1274002,323,65
1274018,338,65
1274033,329,65
1274035,322,65
1274052,344,65
1274052,319,65
1274074,333,65
1274084,335,65
1274094,317,65
1274102,343,65
1274114,323,65
1274125,326,65
1274135,345,65
1274135,318,65
1274150,346,65
1274166,366,65
1274176,475,64
1274182,537,64
1274195,370,64
1274207,268,64
1274213,338,64
1274228,309,64
1274238,336,64
1274247,317,64
1274258,318,64
1274269,338,64
1274278,312,64
1274279,336,64
1274297,331,64
1274310,321,64
1274313,351,64
1274329,327,64
1274341,343,64
1274346,353,64
1274361,335,64
1274363,369,64
1274380,360,64
1274389,371,64
1274402,396,64
1274413,378,64
1274413,404,64
1274430,388,64
1274439,363,64
1274453,364,64
1274462,322,64
1274474,325,64
1274480,320,64
1274495,296,64
1274496,322,64
1274513,306,64
1274513,305,64
1274536,323,64
1274546,299,64
1274546,319,64
1274563,310,64
1274563,304,64
1274580,329,64
1274597,302,64
1274608,316,64
1274613,322,64
1274613,300,64
1274638,329,64
1274646,314,64
1274659,313,64
1274663,332,64
1274680,306,64
1274680,330,64
1274696,326,64
1274709,312,64
1274713,337,64
1274730,310,64
1274741,323,64
1274746,333,64
1274762,310,64
1274763,337,64
1274780,321,64
1274789,320,64
1274796,338,64
1274813,313,64
1274823,334,64
1274829,330,64
1274843,315,64
1274854,339,64
1274863,316,64
1274863,328,64
1274880,335,64
1274895,313,64
1274905,339,64
1274912,326,64
1274926,323,64
1274936,343,64
1274946,316,64
1274956,335,64
1274963,332,64
1274963,320,64
1274987,345,64
1274997,324,64
1275007,333,64
1275012,349,64
1275028,325,64
1275036,356,64
1275046,342,64
1275059,330,64
1275063,343,64
1275080,318,64
1275089,337,64
1275095,331,64
1275111,317,64
1275121,343,64
1275131,320,64
1275141,330,64
1275152,342,64
1275162,321,64
1275163,345,64
1275179,333,64
1275193,325,64
1275203,358,64
1275213,369,64
1275213,508,63
1275230,501,63
1275244,331,63
1275254,299,63
1275263,329,63
1275263,326,63
1275285,336,63
1275295,314,63
1275296,342,63
1275313,329,63
1275327,326,63
1275337,350,63
1275346,323,63
1275346,345,63
1275363,348,63
1275377,332,63
1275388,363,63
1275396,345,63
1275409,358,63
1275418,376,63
1275429,361,63
1275438,395,63
1275445,391,63
1275460,391,63
1275463,416,63
1275479,384,63
1275491,378,63
1275501,355,63
1275511,325,63
1275521,341,63
1275529,314,63
1275542,320,63
1275552,331,63
1275562,307,63
1275563,334,63
1275579,321,63
1275592,312,63
1275597,334,63
1275612,307,63
1275625,328,63
1275630,328,63
1275638,311,63
1275646,340,63
1275663,319,63
1275675,326,63
1275679,339,63
1275695,314,63
1275706,339,63
1275712,329,63
1275726,322,63
1275737,345,63
1275746,319,63
1275758,333,63
1275763,335,63
1275779,319,63
1275780,345,63
1275798,325,63
1275808,332,63
1275813,343,63
1275829,320,63
1275839,345,63
1275845,337,63
1275859,330,63
1275870,351,63
1275879,326,63
1275890,341,63
1275895,342,63
1275911,323,63
1275921,350,63
1275929,332,63
1275942,336,63
1275952,350,63
1275962,321,63
1275973,345,63
1275981,341,63
1275994,330,63
1275996,357,63
1276012,337,63
1276024,353,63
1276034,354,63
1276034,332,63
1276055,345,63
1276062,328,63
1276075,331,63
1276086,345,63
1276096,317,63
1276106,340,63
1276112,331,63
1276126,321,63
1276137,343,63
1276146,322,63
1276158,336,63
1276168,338,63
1276178,320,63
1276188,351,63
1276196,344,63
1276209,409,62
1276213,514,62
1276229,397,62
1276240,289,62
1276246,321,62
1276246,321,62
1276263,338,62
1276280,320,62
1276292,330,62
1276296,340,62
1276311,319,62
1276322,343,62
1276329,330,62
1276342,333,62
1276353,351,62
1276362,333,62
1276373,352,62
1276383,352,62
1276383,346,62
1276404,373,62
1276413,356,62
1276413,381,62
1276430,395,62
1276445,382,62
1276447,412,62
1276464,392,62
1276476,376,62
1276486,367,62
1276496,318,62
1276507,323,62
1276513,310,62
1276528,294,62
1276538,317,62
1276547,294,62
1276559,307,62
1276563,313,62
1276578,287,62
1276585,315,62
1276596,298,62
1276610,300,62
1276620,314,62
1276629,293,62
1276640,316,62
1276651,313,62
1276661,303,62
1276672,328,62
1276679,304,62
1276683,319,62
1276702,322,62
1276712,299,62
1276712,329,62
1276729,308,62
1276745,310,62
1276753,327,62
1276763,304,62
1276773,323,62
1276784,316,62
1276794,306,62
1276797,334,62
1276813,311,62
1276825,320,62
1276835,329,62
1276846,306,62
1276847,331,62
1276862,320,62
1276876,319,62
1276880,334,62
1276896,316,62
1276907,336,62
1276917,337,62
1276927,319,62
1276938,342,62
1276945,309,62
1276958,319,62
1276963,328,62
1276980,303,62
1276984,326,62
1276996,313,62
1277010,311,62
1277013,332,62
1277029,309,62
1277041,325,62
1277046,321,62
1277061,310,62
1277071,337,62
1277080,326,62
1277092,366,62
1277096,464,62
1277112,416,62
1277123,329,62
1277129,282,62
1277143,328,62
1277153,330,62
1277162,308,62
1277174,333,62
1277180,331,62
1277195,314,62
1277196,343,62
1277212,319,62
1277216,331,62
1277230,343,62
1277246,326,62
1277247,350,62
1277263,339,62
1277277,340,62
1277280,372,62
1277296,351,62
1277296,382,62
1277318,389,62
1277328,380,62
1277337,415,62
1277346,392,62
1277359,387,62
1277362,374,62
1277379,322,62
1277389,332,62
1277396,312,62
1277410,297,62
1277421,322,62
1277430,292,62
1277441,311,62
1277445,307,62
1277461,292,62
1277463,318,62
1277480,295,62
1277493,303,62
1277503,318,62
1277512,294,62
1277522,320,62
1277529,314,62
1277536,306,62
1277554,329,62
1277562,303,62
1277574,319,62
1277581,321,62
1277596,301,62
1277605,331,62
1277613,309,62
1277613,314,62
1277630,327,62
1277645,305,62
1277656,329,62
1277662,318,62
1277677,309,62
1277688,332,62
1277696,309,62
1277708,326,62
1277713,331,62
1277730,310,62
1277730,340,62
1277747,322,62
1277747,332,62
1277769,342,62
1277780,308,62
1277789,329,62
1277796,322,62
1277796,312,62
1277821,337,62
1277830,308,62
1277837,321,62
1277846,323,62
1277862,303,62
1277872,327,62
1277881,308,62
1277893,312,62
1277896,331,62
1277913,306,62
1277924,344,62
1277930,381,62
1277935,468,64
1277955,416,64
1277962,281,64
1277974,302,64
1277985,330,64
1277996,304,64
1278006,335,64
1278012,317,64
1278027,324,64
1278036,343,64
1278045,318,64
1278057,344,64
1278063,337,64
1278063,325,64
1278081,355,64
1278096,332,64
1278108,349,64
1278118,358,64
1278129,343,64
1278137,377,64
1278146,367,64
1278146,378,64
1278170,404,64
1278179,383,64
1278190,406,64
1278197,385,64
1278197,346,64
1278222,349,64
1278230,310,64
1278238,314,64
1278246,313,64
1278262,293,64
1278265,319,64
1278281,306,64
1278293,302,64
1278303,319,64
1278313,293,64
1278324,314,64
1278330,311,64
1278344,299,64
1278354,323,64
1278362,308,64
1278376,315,64
1278382,325,64
1278395,303,64
1278406,330,64
1278413,314,64
1278413,311,64
1278433,332,64
1278446,306,64
1278457,326,64
1278462,319,64
1278478,308,64
1278488,333,64
1278496,310,64
1278508,320,64
1278513,329,64
1278529,309,64
1278540,333,64
1278546,316,64
1278546,315,64
1278564,336,64
1278580,312,64
1278590,332,64
1278596,326,64
1278612,323,64
1278614,347,64
1278630,326,64
1278638,335,64
1278652,337,64
1278663,311,64
1278673,339,64
1278681,323,64
1278686,318,64
1278695,340,64
1278712,315,64
1278724,335,64
1278729,334,64
1278744,314,64
1278755,344,64
1278763,321,64
1278776,331,64
1278786,340,64
1278796,334,64
1278797,414,65
1278812,515,65
1278827,453,65
1278829,316,65
1278846,291,65
1278858,335,65
1278863,331,65
1278875,316,65
1278889,343,65
1278896,323,65
1278909,333,65
1278914,345,65
1278929,321,65
1278939,346,65
1278946,339,65
1278946,334,65
1278970,356,65
1278981,335,65
1278991,356,65
1279001,366,65
1279012,353,65
1279012,387,65
1279030,376,65
1279039,389,65
1279053,408,65
1279063,382,65
1279073,390,65
1279081,358,65
1279094,331,65
1279104,343,65
1279113,300,65
1279113,315,65
1279130,318,65
1279145,301,65
1279146,328,65
1279163,307,65
1279163,312,65
1279186,326,65
1279196,302,65
1279207,325,65
1279212,316,65
1279227,305,65
1279238,330,65
1279245,306,65
1279258,320,65
1279268,328,65
1279278,307,65
1279289,333,65
1279296,315,65
1279296,318,65
1279320,335,65
1279329,312,65
1279340,335,65
1279346,326,65
1279346,317,65
1279363,340,65
1279381,314,65
1279389,330,65
1279402,334,65
1279411,313,65
1279423,340,65
1279430,328,65
1279437,326,65
1279447,344,65
1279464,320,65
1279473,341,65
1279481,332,65
1279494,320,65
1279505,345,65
1279513,318,65
1279525,335,65
1279530,342,65
1279545,320,65
1279556,348,65
1279563,336,65
1279563,337,65
1279587,355,65
1279596,328,65
1279596,339,65
1279612,331,65
1279628,321,65
1279638,345,65
1279646,322,65
1279646,334,65
1279663,340,65
1279679,316,65
1279689,342,65
1279697,323,65
1279709,325,65
1279720,342,65
1279730,317,65
1279736,340,65
1279746,351,65
1279746,412,65
1279771,542,65
1279778,451,65
1279792,270,65
1279796,317,65
1279813,313,65
1279822,333,65
1279828,318,65
1279843,317,65
1279854,337,65
1279863,310,65
1279874,331,65
1279882,328,65
1279882,314,65
1279897,344,65
1279913,324,65
1279925,337,65
1279936,352,65
1279946,330,65
1279946,363,65
1279963,354,65
1279977,361,65
1279986,391,65
1279996,372,65
1279996,401,65
1280013,398,65
1280028,366,65
1280038,369,65
1280047,327,65
1280058,321,65
1280069,320,65
1280079,294,65
1280089,316,65
1280096,300,65
1280111,297,65
1280119,321,65
1280129,297,65
1280141,315,65
1280151,316,65
1280162,300,65
1280172,326,65
1280180,306,65
1280182,312,65
1280203,327,65
1280213,301,65
1280213,328,65
1280231,317,65
1280244,311,65
1280254,332,65
1280263,306,65
1280274,327,65
1280284,327,65
1280295,310,65
1280306,336,65
1280313,315,65
1280313,322,65
1280330,337,65
1280346,313,65
1280347,337,65
1280363,325,65
1280377,320,65
1280382,343,65
1280396,316,65
1280408,335,65
1280418,337,65
1280428,317,65
1280438,343,65
1280446,323,65
1280459,329,65
1280470,343,65
1280479,317,65
1280490,342,65
1280497,333,65
1280497,322,65
1280521,344,65
1280529,323,65
1280541,336,65
1280546,336,65
1280562,325,65
1280563,357,65
1280582,335,65
1280592,338,65
1280596,349,65
1280613,314,65
1280613,342,65
1280630,333,65
1280640,321,65
1280647,341,65
1280663,314,65
1280675,330,65
1280685,333,65
1280695,309,65
1280705,341,65
1280712,322,65
1280712,323,65
1280730,341,65
1280746,323,65
1280746,369,65
1280763,474,64
1280763,510,64
1280787,405,64
1280796,244,64
1280808,328,64
1280813,326,64
1280829,306,64
1280839,333,64
1280847,315,64
1280847,318,64
1280869,336,64
1280880,310,64
1280888,333,64
1280897,327,64
1280911,316,64
1280921,347,64
1280929,326,64
1280937,341,64
1280945,352,64
1280962,336,64
1280966,370,64
1280982,363,64
1280983,372,64
1280997,399,64
1281013,373,64
1281013,392,64
1281030,370,64
1281044,334,64
1281045,339,64
1281063,305,64
1281075,312,64
1281083,316,64
1281095,293,64
1281096,320,64
1281114,306,64
1281126,305,64
1281130,322,64
1281146,297,64
1281146,317,64
1281162,313,64
1281178,300,64
1281188,329,64
1281195,302,64
1281209,312,64
1281219,322,64
1281229,299,64
1281235,327,64
1281245,311,64
1281260,310,64
1281263,334,64
1281279,308,64
1281287,325,64
1281297,326,64
1281297,310,64
1281322,337,64
1281330,315,64
1281342,323,64
1281347,329,64
1281363,309,64
1281373,334,64
1281383,321,64
1281394,316,64
1281396,339,64
1281412,311,64
1281424,332,64
1281434,332,64
1281445,315,64
1281454,342,64
1281462,321,64
1281462,329,64
1281483,341,64
1281495,316,64
1281507,343,64
1281513,334,64
1281513,323,64
1281530,344,64
1281545,320,64
1281557,339,64
1281563,340,64
1281578,327,64
1281589,357,64
1281596,333,64
1281596,342,64
1281619,347,64
1281630,317,64
1281638,344,64
1281645,333,64
1281645,326,64
1281663,347,64
1281679,322,64
1281687,337,64
1281701,339,64
1281712,322,64
1281722,350,64
1281729,330,64
1281736,335,64
1281746,348,64
1281762,331,64
1281773,381,64
1281784,492,62
1281794,484,62
1281796,371,62
1281813,272,62
1281825,339,62
1281833,333,62
1281845,314,62
1281855,340,62
1281863,322,62
1281863,329,62
1281884,346,62
1281896,322,62
1281907,347,62
1281912,343,62
1281912,333,62
1281938,362,62
1281946,340,62
1281958,356,62
1281967,367,62
1281979,351,62
1281989,386,62
1281996,377,62
1282009,386,62
1282020,410,62
1282029,386,62
1282041,399,62
1282046,371,62
1282061,338,62
1282071,347,62
1282080,312,62
1282088,320,62
1282097,324,62
1282107,303,62
1282123,327,62
1282131,310,62
1282143,311,62
1282146,328,62
1282163,301,62
1282174,325,62
1282184,318,62
1282195,307,62
1282204,334,62
1282212,311,62
1282225,321,62
1282233,329,62
1282246,306,62
1282256,336,62
1282263,321,62
1282276,317,62
1282286,337,62
1282296,310,62
1282307,330,62
1282312,323,62
1282328,310,62
1282333,338,62
1282346,312,62
1282359,322,62
1282369,332,62
1282379,309,62
1282387,335,62
1282397,322,62
1282410,322,62
1282412,341,62
1282429,313,62
1282441,335,62
1282445,330,62
1282461,316,62
1282471,347,62
1282479,319,62
1282492,337,62
1282503,349,62
1282512,326,62
1282522,350,62
1282532,322,62
1282543,318,62
1282553,343,62
1282563,316,62
1282563,337,62
1282584,333,62
1282589,315,62
1282605,344,62
1282612,319,62
1282625,329,62
1282636,342,62
1282646,317,62
1282656,344,62
1282663,334,62
1282663,344,62
1282684,427,62
1282697,482,62
1282697,405,62
1282713,286,62
1282728,313,62
1282738,346,62
1282746,317,62
1282759,329,62
1282769,340,62
1282779,318,62
1282789,342,62
1282797,333,62
1282811,330,62
1282820,355,62
1282829,326,62
1282831,347,62
1282846,351,62
1282862,337,62
1282872,370,62
1282880,353,62
1282888,369,62
1282903,389,62
1282913,374,62
1282913,405,62
1282930,400,62
1282939,389,62
1282954,396,62
1282963,344,62
1282963,338,62
1282980,324,62
1282994,299,62
1283005,320,62
1283012,300,62
1283012,300,62
1283030,319,62
1283046,292,62
1283056,316,62
1283067,305,62
1283077,304,62
1283087,324,62
1283096,298,62
1283104,317,62
1283113,320,62
1283121,302,62
1283139,328,62
1283147,311,62
1283159,311,62
1283163,327,62
1283179,302,62
1283190,324,62
1283196,318,62
1283210,304,62
1283212,331,62
1283229,306,62
1283241,321,62
1283252,326,62
1283261,309,62
1283272,332,62
1283279,313,62
1283293,315,62
1283296,333,62
1283313,306,62
1283313,333,62
1283330,324,62
1283339,314,62
1283345,344,62
1283365,319,62
1283365,331,62
1283384,336,62
1283396,304,62
1283397,332,62
1283413,315,62
1283413,318,62
1283430,337,62
1283447,303,62
1283447,327,62
1283462,324,62
1283478,308,62
1283486,337,62
1283496,313,62
1283508,328,62
1283512,332,62
1283529,324,62
1283538,369,62
1283547,439,64
1283547,434,64
1283563,351,64
1283580,272,64
1283588,340,64
1283596,327,64
1283611,315,64
1283621,341,64
1283630,320,64
1283630,332,64
1283646,343,64
1283662,317,64
1283673,349,64
1283682,334,64
1283689,334,64
1283703,357,64
1283713,337,64
1283724,358,64
1283730,361,64
1283737,357,64
1283746,391,64
1283763,378,64
1283775,395,64
1283785,409,64
1283796,387,64
1283796,403,64
1283813,367,64
1283813,335,64
1283837,337,64
1283846,306,64
1283857,316,64
1283868,315,64
1283878,294,64
1283889,324,64
1283895,299,64
1283909,304,64
1283919,316,64
1283929,295,64
1283939,317,64
1283946,309,64
1283959,303,64
1283970,328,64
1283980,302,64
1283991,325,64
1283997,323,64
1284011,306,64
1284013,332,64
1284029,311,64
1284033,317,64
1284048,330,64
1284063,307,64
1284073,332,64
1284080,317,64
1284093,308,64
1284104,332,64
1284113,306,64
1284124,324,64
1284135,327,64
1284145,312,64
1284155,339,64
1284163,315,64
1284175,328,64
1284180,342,64
1284196,316,64
1284207,341,64
1284213,329,64
1284227,312,64
1284237,337,64
1284246,314,64
1284258,322,64
1284263,329,64
1284279,311,64
1284289,336,64
1284297,317,64
1284297,321,64
1284319,336,64
1284329,311,64
1284340,335,64
1284347,329,64
1284361,335,64
1284370,385,64
1284379,453,65
1284388,445,65
1284401,349,65
1284412,281,65
1284413,350,65
1284430,319,65
1284439,326,65
1284453,343,65
1284462,319,65
1284473,343,65
1284479,337,65
1284494,325,65
1284504,351,65
1284512,331,65
1284525,345,65
1284535,351,65
1284545,335,65
1284546,366,65
1284562,356,65
1284562,363,65
1284579,390,65
1284596,370,65
1284596,402,65
1284613,402,65
1284627,392,65
1284630,403,65
1284646,354,65
1284659,344,65
1284668,336,65
1284678,303,65
1284688,325,65
1284696,309,65
1284709,305,65
1284720,324,65
1284729,296,65
1284740,319,65
1284746,315,65
1284760,295,65
1284771,323,65
1284779,300,65
1284792,311,65
1284796,321,65
1284812,297,65
1284813,321,65
1284829,312,65
1284843,309,65
1284846,330,65
1284863,305,65
1284874,323,65
1284879,322,65
1284894,306,65
1284904,330,65
1284912,310,65
1284925,320,65
1284935,333,65
1284945,307,65
1284956,333,65
1284963,319,65
1284963,313,65
1284980,336,65
1284997,313,65
1284997,333,65
1285013,329,65
1285013,322,65
1285029,352,65
1285047,331,65
1285058,335,65
1285069,339,65
1285079,310,65
1285089,336,65
1285096,324,65
1285110,315,65
1285120,336,65
1285129,310,65
1285134,330,65
1285146,330,65
1285156,313,65
1285171,339,65
1285179,321,65
1285192,328,65
1285202,343,65
1285212,331,65
1285223,412,66
1285230,505,66
1285243,425,66
1285245,316,66
1285262,292,66
1285273,331,66
1285279,331,66
1285294,310,66
1285297,336,66
1285313,322,66
1285325,324,66
1285336,341,66
1285346,318,66
1285355,342,66
1285362,333,66
1285377,328,66
1285387,352,66
1285396,331,66
1285396,350,66
1285412,363,66
1285428,348,66
1285429,382,66
1285446,373,66
1285446,386,66
1285463,408,66
1285479,377,66
1285489,384,66
1285496,353,66
1285509,324,66
1285520,334,66
1285530,305,66
1285541,312,66
1285551,316,66
1285561,295,66
1285571,324,66
1285579,304,66
1285592,306,66
1285603,322,66
1285612,299,66
1285613,323,66
1285629,316,66
1285639,303,66
1285646,327,66
1285662,302,66
1285662,316,66
1285681,323,66
1285695,303,66
1285705,329,66
1285712,314,66
1285726,313,66
1285736,331,66
1285746,304,66
1285756,328,66
1285762,322,66
1285778,312,66
1285783,335,66
1285797,312,66
1285797,322,66
1285813,329,66
1285828,311,66
1285838,338,66
1285848,317,66
1285848,319,66
1285863,340,66
1285879,310,66
1285890,329,66
1285896,329,66
1285910,315,66
1285921,342,66
1285929,323,66
1285941,335,66
1285946,347,66
1285961,323,66
1285963,339,66
1285979,318,66
1285990,318,66
1285997,339,66
1286012,312,66
1286023,330,66
1286032,327,66
1286044,311,66
1286047,338,66
1286063,315,66
1286075,322,66
1286084,336,66
1286096,314,66
1286096,337,66
1286113,339,66
1286126,387,66
1286136,518,66
1286146,450,66
1286157,318,66
1286162,297,66
1286177,312,66
1286187,336,66
1286196,312,66
1286208,319,66
1286218,334,66
1286229,315,66
1286239,342,66
1286246,331,66
1286259,324,66
1286270,349,66
1286280,325,66
1286291,345,66
1286296,348,66
1286311,332,66
1286321,366,66
1286331,351,66
1286342,366,66
1286346,390,66
1286362,373,66
1286373,403,66
1286379,395,66
1286393,374,66
1286396,374,66
1286412,330,66
1286424,330,66
1286429,326,66
1286445,301,66
1286455,325,66
1286462,308,66
1286462,313,66
1286485,331,66
1286496,301,66
1286506,326,66
1286513,317,66
1286526,307,66
1286536,330,66
1286546,304,66
1286546,318,66
1286563,322,66
1286563,304,66
1286588,331,66
1286595,314,66
1286609,316,66
1286613,332,66
1286629,307,66
1286639,330,66
1286646,322,66
1286660,314,66
1286663,338,66
1286680,314,66
1286690,327,66
1286696,331,66
1286696,310,66
1286721,339,66
1286730,324,66
1286738,324,66
1286745,341,66
1286763,316,66
1286772,339,66
1286779,334,66
1286793,321,66
1286803,346,66
1286812,322,66
1286824,336,66
1286834,341,66
1286845,320,66
1286855,346,66
1286863,327,66
1286875,328,66
1286882,347,66
1286895,318,66
1286906,340,66
1286913,343,66
1286913,332,66
1286930,357,66
1286946,331,66
1286946,335,66
1286963,338,66
1286979,319,66
1286988,345,66
1286996,328,66
1286996,325,66
1287012,343,66
1287029,318,66
1287039,338,66
1287046,333,66
1287060,320,66
1287071,343,66
1287079,320,66
1287091,335,66
1287097,359,66
1287111,411,65
1287112,538,65
1287130,461,65
1287142,269,65
1287152,323,65
1287162,313,65
1287174,325,65
1287180,325,65
1287193,310,65
1287195,339,65
1287213,316,65
1287213,322,65
1287235,339,65
1287245,316,65
1287255,345,65
1287264,331,65
1287276,329,65
1287286,352,65
1287297,331,65
1287306,355,65
1287312,361,65
1287327,356,65
1287334,395,65
1287346,380,65
1287346,393,65
1287363,405,65
1287363,369,65
1287379,367,65
1287395,338,65
1287410,316,65
1287420,326,65
1287429,297,65
1287440,314,65
1287445,317,65
1287460,299,65
1287463,326,65
1287481,306,65
1287492,309,65
1287502,321,65
1287512,295,65
1287522,322,65
1287529,312,65
1287542,305,65
1287546,328,65
1287562,303,65
1287574,318,65
1287579,323,65
1287594,306,65
1287597,332,65
1287613,311,65
1287625,314,65
1287630,328,65
1287646,304,65
1287656,325,65
1287662,316,65
1287676,309,65
1287687,335,65
1287696,309,65
1287707,324,65
1287712,330,65
1287728,309,65
1287737,333,65
1287747,317,65
1287747,321,65
1287762,336,65
1287779,311,65
1287789,335,65
1287796,326,65
1287810,315,65
1287820,339,65
1287829,317,65
1287840,328,65
1287846,332,65
1287846,312,65
1287863,341,65
1287879,325,65
1287891,324,65
1287897,341,65
1287912,322,65
1287923,345,65
1287929,339,65
1287944,327,65
1287953,342,65
1287963,317,65
1287963,331,65
1287980,336,65
1287993,314,65
1288005,340,65
1288013,319,65
1288013,320,65
1288030,338,65
1288045,314,65
1288056,335,65
1288062,329,65
1288076,316,65
1288087,343,65
1288095,332,65
1288107,422,64
1288118,538,64
1288127,461,64
1288138,281,64
1288145,303,64
1288159,321,64
1288163,334,64
1288180,307,64
1288187,330,64
1288196,328,64
1288209,311,64
1288221,340,64
1288230,317,64
1288235,329,64
1288251,340,64
1288261,322,64
1288271,350,64
1288280,338,64
1288292,338,64
1288296,364,64
1288313,343,64
1288313,374,64
1288330,382,64
1288343,373,64
1288346,407,64
1288362,383,64
1288374,382,64
1288380,369,64
1288395,322,64
1288404,333,64
1288412,311,64
1288426,299,64
1288435,322,64
1288445,294,64
1288456,314,64
1288462,318,64
1288462,301,64
1288487,328,64
1288496,304,64
1288496,310,64
1288513,325,64
1288528,302,64
1288538,326,64
1288546,314,64
1288559,306,64
1288569,328,64
1288579,303,64
1288590,321,64
1288596,322,64
1288610,305,64
1288621,331,64
1288630,308,64
1288631,313,64
1288646,329,64
1288662,303,64
1288663,326,64
1288679,318,64
1288692,307,64
1288703,333,64
1288713,308,64
1288713,322,64
1288729,327,64
1288744,310,64
1288746,336,64
1288763,320,64
1288763,325,64
1288785,339,64
1288795,312,64
1288806,335,64
1288813,327,64
1288813,316,64
1288830,341,64
1288846,315,64
1288857,329,64
1288863,339,64
1288878,323,64
1288886,350,64
1288895,330,64
1288908,323,64
1288918,333,64
1288929,309,64
1288938,328,64
1288945,322,64
1288959,313,64
1288963,336,64
1288979,312,64
1288990,325,64
1288996,330,64
1289011,310,64
1289020,336,64
1289029,321,64
1289036,322,64
1289045,353,64
1289063,397,64
1289072,535,64
1289080,477,64
1289087,262,64
1289097,312,64
1289112,315,64
1289124,319,64
1289130,327,64
1289143,308,64
1289155,337,64
1289163,323,64
1289174,320,64
1289184,344,64
1289196,315,64
1289197,343,64
1289213,343,64
1289213,333,64
1289230,361,64
1289246,340,64
1289256,358,64
1289267,375,64
1289278,362,64
1289287,398,64
1289296,391,64
1289309,393,64
1289319,414,64
1289329,374,64
1289339,368,64
1289346,343,64
1289360,312,64
1289370,327,64
1289379,301,64
1289390,309,64
1289401,317,64
1289411,295,64
1289412,319,64
1289429,306,64
1289439,303,64
1289447,324,64
1289462,301,64
1289473,319,64
1289479,317,64
1289493,302,64
1289497,331,64
1289513,308,64
1289513,318,64
1289530,330,64
1289544,307,64
