Timestamp,ECGValue,BPM
2751019,310,108
2751029,316,108
2751040,322,108
2751046,561,109
2751061,659,109
2751070,635,109
2751079,241,109
2751091,248,109
2751101,318,109
2751111,304,109
2751115,279,109
2751132,310,109
2751143,286,109
2751153,296,109
2751161,315,109
2751161,289,109
2751178,323,109
2751193,317,109
2751204,309,109
2751211,337,109
2751224,312,109
2751229,334,109
2751244,336,109
2751255,319,109
2751265,359,109
2751276,343,109
2751280,353,109
2751296,382,109
2751306,366,109
2751316,406,109
2751327,408,109
2751338,406,109
2751345,441,109
2751357,411,109
2751368,415,109
2751379,388,109
2751389,328,109
2751399,334,109
2751409,292,109
2751413,280,109
2751429,293,109
2751440,261,109
2751445,286,109
2751461,275,109
2751471,262,109
2751478,291,109
2751478,262,109
2751499,281,109
2751512,287,109
2751522,265,109
2751528,298,109
2751528,278,109
2751553,280,109
2751561,300,109
2751573,272,109
2751579,300,109
2751593,292,109
2751599,279,109
2751612,310,109
2751624,280,109
2751635,293,109
2751645,301,109
2751645,278,109
2751662,310,109
2751676,288,109
2751679,290,109
2751695,313,109
2751707,286,109
2751712,318,109
2751727,309,109
2751738,293,109
2751746,328,109
2751758,300,109
2751768,313,109
2751778,324,109
2751789,297,109
2751799,328,109
2751810,310,109
2751820,306,109
2751828,327,109
2751828,298,109
2751851,323,109
2751861,319,109
2751871,305,109
2751879,337,109
2751892,310,109
2751899,325,109
2751912,337,109
2751923,309,109
2751929,341,109
2751944,324,109
2751953,321,109
2751962,343,109
2751973,313,109
2751979,337,109
2751979,334,109
2752005,319,109
2752012,351,109
2752026,323,109
2752029,336,109
2752045,348,109
2752055,320,109
2752062,352,109
2752077,334,109
2752079,327,109
2752094,362,109
2752108,337,109
2752117,359,109
2752128,352,109
2752138,332,109
2752144,354,109
2752159,325,109
2752169,332,109
2752179,348,109
2752189,319,109
2752198,347,109
2752210,334,109
2752220,320,109
2752228,369,109
2752228,534,105
2752245,659,105
2752262,658,105
2752271,272,105
2752278,292,105
2752292,327,105
2752303,318,105
2752311,327,105
2752323,299,105
2752328,329,105
2752344,317,105
2752346,310,105
2752362,342,105
2752374,317,105
2752384,341,105
2752395,344,105
2752405,326,105
2752411,360,105
2752425,336,105
2752436,344,105
2752445,364,105
2752456,341,105
2752466,376,105
2752466,370,105
2752488,371,105
2752495,413,105
2752507,396,105
2752518,426,105
2752528,439,105
2752529,422,105
2752545,455,105
2752559,420,105
2752562,400,105
2752578,383,105
2752590,324,105
2752599,329,105
2752610,303,105
2752620,285,105
2752628,308,105
2752641,275,105
2752651,290,105
2752662,294,105
2752672,270,105
2752679,302,105
2752679,278,105
2752702,280,105
2752712,301,105
2752723,270,105
2752729,296,105
2752743,286,105
2752754,275,105
2752762,304,105
2752774,274,105
2752785,292,105
2752795,298,105
2752799,272,105
2752812,304,105
2752822,282,105
2752837,283,105
2752845,303,105
2752857,272,105
2752867,297,105
2752877,289,105
2752888,274,105
2752895,306,105
2752909,277,105
2752919,295,105
2752928,304,105
2752938,281,105
2752945,314,105
2752959,296,105
2752970,294,105
2752978,313,105
2752989,284,105
2753000,309,105
2753011,302,105
2753021,287,105
2753029,319,105
2753042,292,105
2753045,308,105
2753061,317,105
2753072,288,105
2753079,322,105
2753092,304,105
2753103,304,105
2753112,328,105
2753123,298,105
2753134,323,105
2753145,322,105
2753147,307,105
2753162,335,105
2753175,309,105
2753185,322,105
2753195,334,105
2753206,309,105
2753211,339,105
2753226,323,105
2753236,323,105
2753245,348,105
2753257,319,105
2753261,341,105
2753278,342,105
2753279,335,105
2753295,371,105
2753308,339,105
2753317,348,105
2753328,355,105
2753328,321,105
2753346,350,105
2753359,336,105
2753370,330,105
2753379,352,105
2753390,320,105
2753401,340,105
2753411,333,105
2753421,437,105
2753428,659,105
2753442,659,105
2753445,444,105
2753463,240,105
2753471,307,105
2753478,346,105
2753493,319,105
2753499,314,105
2753512,344,105
2753524,315,105
2753534,341,105
2753545,341,105
2753555,325,105
2753562,362,105
2753576,339,105
2753586,354,105
2753595,369,105
2753606,345,105
2753614,375,105
2753626,362,105
2753637,360,105
2753645,392,105
2753658,367,105
2753668,397,105
2753678,409,105
2753688,398,105
2753695,444,105
2753709,431,105
2753720,446,105
2753728,469,105
2753739,432,105
2753750,436,105
2753760,388,105
2753770,346,105
2753779,345,105
2753779,292,105
2753801,301,105
2753811,299,105
2753822,274,105
2753828,303,105
2753842,280,105
2753845,287,105
2753862,308,105
2753873,279,105
2753879,311,105
2753893,301,105
2753904,295,105
2753911,324,105
2753924,290,105
2753935,308,105
2753944,314,105
2753955,294,105
2753964,325,105
2753976,304,105
2753986,307,105
2753995,325,105
2753999,290,105
2754012,316,105
2754027,310,105
2754029,297,105
2754046,326,105
2754058,296,105
2754068,316,105
2754078,320,105
2754089,297,105
2754095,331,105
2754109,314,105
2754118,314,105
2754129,333,105
2754140,302,105
2754145,331,105
2754160,322,105
2754165,310,105
2754178,342,105
2754192,315,105
2754201,333,105
2754212,342,105
2754222,317,105
2754228,349,105
2754242,328,105
2754245,334,105
2754262,364,105
2754273,333,105
2754284,358,105
2754293,350,105
2754299,327,105
2754312,354,105
2754325,323,105
2754329,337,105
2754346,346,105
2754355,320,105
2754365,349,105
2754375,320,105
2754386,353,105
2754396,590,109
2754400,659,109
2754413,654,109
2754423,255,109
2754437,266,109
2754446,348,109
2754446,314,109
2754463,323,109
2754478,334,109
2754489,313,109
2754495,345,109
2754509,328,109
2754520,331,109
2754529,356,109
2754540,331,109
2754551,360,109
2754561,362,109
2754571,351,109
2754578,381,109
2754591,355,109
2754602,371,109
2754612,388,109
2754623,365,109
2754629,403,109
2754629,397,109
2754653,402,109
2754662,440,109
2754671,424,109
2754684,457,109
2754694,460,109
2754704,440,110
2754711,447,110
2754725,387,110
2754735,359,110
2754745,339,110
2754756,288,110
2754766,306,110
2754776,284,110
2754787,276,110
2754795,300,110
2754807,270,110
2754818,292,110
2754827,290,110
2754839,272,110
2754845,303,110
2754858,280,110
2754868,291,110
2754878,307,110
2754878,279,110
2754895,310,110
2754910,296,110
2754920,288,110
2754928,315,110
2754940,286,110
2754951,306,110
2754961,305,110
2754967,285,110
2754979,315,110
2754992,290,110
2755001,295,110
2755012,309,110
2755022,279,110
2755029,307,110
2755042,298,110
2755054,292,110
2755062,319,110
2755074,288,110
2755085,309,110
2755095,312,110
2755104,291,110
2755111,324,110
2755125,301,110
2755136,305,110
2755144,322,110
2755156,294,110
2755167,320,110
2755176,310,110
2755187,301,110
2755195,328,110
2755208,298,110
2755212,317,110
2755228,325,110
2755239,301,110
2755245,333,110
2755259,311,110
2755269,313,110
2755279,332,110
2755290,302,110
2755300,327,110
2755311,316,110
2755320,304,110
2755328,332,110
2755340,304,110
2755351,322,110
2755361,328,110
2755372,305,110
2755379,337,110
2755392,315,110
2755401,317,110
2755412,337,110
2755422,307,110
2755428,335,110
2755443,324,110
2755455,315,110
2755462,351,110
2755470,323,110
2755485,334,110
2755494,338,110
2755506,307,110
2755512,332,110
2755526,310,110
2755536,314,110
2755545,334,110
2755556,303,110
2755567,331,110
2755577,318,110
2755587,301,110
2755595,458,107
2755608,658,107
2755618,659,107
2755628,419,107
2755639,207,107
2755645,331,107
2755659,306,107
2755670,292,107
2755679,315,107
2755690,287,107
2755701,314,107
2755711,310,107
2755721,298,107
2755728,334,107
2755742,308,107
2755752,325,107
2755762,336,107
2755772,314,107
2755779,349,107
2755779,331,107
2755803,333,107
2755812,362,107
2755823,336,107
2755828,368,107
2755843,373,107
2755845,367,107
2755862,410,107
2755867,397,107
2755879,420,107
2755895,442,107
2755905,419,106
2755912,446,106
2755919,408,106
2755929,371,106
2755945,365,106
2755956,307,106
2755967,310,106
2755978,296,106
2755979,272,106
2755996,303,106
2756008,274,106
2756012,284,106
2756028,300,106
2756039,270,106
2756045,302,106
2756060,286,106
2756069,282,106
2756079,308,106
2756090,277,106
2756101,300,106
2756111,296,106
2756121,280,106
2756129,310,106
2756129,285,106
2756152,296,106
2756162,309,106
2756171,280,106
2756178,311,106
2756193,296,106
2756204,288,106
2756212,313,106
2756223,282,106
2756234,303,106
2756244,304,106
2756255,284,106
2756261,318,106
2756275,294,106
2756285,303,106
2756295,321,106
2756306,292,106
2756316,324,106
2756326,311,106
2756329,302,106
2756345,329,106
2756358,298,106
2756362,318,106
2756378,320,106
2756388,296,106
2756395,329,106
2756409,307,106
2756419,315,106
2756428,332,106
2756439,302,106
2756450,335,106
2756460,323,106
2756471,313,106
2756478,342,106
2756491,311,106
2756501,331,106
2756511,334,106
2756521,310,106
2756528,342,106
2756542,318,106
2756552,323,106
2756561,342,106
2756573,312,106
2756579,344,106
2756594,334,106
2756603,320,106
2756611,350,106
2756624,320,106
2756629,339,106
2756644,344,106
2756656,321,106
2756662,354,106
2756676,329,106
2756686,337,106
2756695,368,106
2756706,338,106
2756712,362,106
2756727,350,106
2756737,330,106
2756745,356,106
2756745,323,106
2756761,340,106
2756778,346,106
2756788,321,106
2756795,353,106
2756804,329,106
2756820,325,106
2756829,474,103
2756840,658,103
2756845,659,103
2756860,435,103
2756871,222,103
2756878,347,103
2756891,312,103
2756902,316,103
2756912,325,103
2756922,300,103
2756928,334,103
2756943,316,103
2756952,317,103
2756962,344,103
2756973,317,103
2756984,346,103
2756994,341,103
2757004,328,103
2757014,360,103
2757025,332,103
2757028,351,103
2757045,368,103
2757055,344,103
2757061,385,103
2757076,375,103
2757086,384,103
2757095,422,103
2757107,404,103
2757117,440,103
2757127,442,103
2757138,429,103
2757145,454,103
2757158,403,103
2757168,381,103
2757178,359,103
2757178,304,103
2757194,318,103
2757210,289,103
2757220,280,103
2757228,302,103
2757240,269,103
2757250,292,103
2757261,289,103
2757271,269,103
2757279,301,103
2757279,273,103
2757299,285,103
2757312,299,103
2757322,269,103
2757329,301,103
2757343,282,103
2757353,276,103
2757361,302,103
2757373,268,103
2757379,293,103
2757395,291,103
2757404,270,103
2757412,303,103
2757425,275,103
2757435,285,103
2757445,299,103
2757456,268,103
2757461,299,103
2757477,283,103
2757486,277,103
2757496,304,103
2757505,276,103
2757515,298,103
2757527,302,103
2757532,281,103
2757545,314,103
2757558,291,103
2757562,299,103
2757579,314,103
2757579,285,103
2757597,315,103
2757604,302,103
2757612,295,103
2757628,321,103
2757641,291,103
2757651,312,103
2757661,316,103
2757672,295,103
2757679,328,103
2757692,304,103
2757697,313,103
2757712,330,103
2757722,302,103
2757729,330,103
2757743,318,103
2757745,309,103
2757762,338,103
2757771,308,103
2757778,330,103
2757794,331,103
2757805,310,103
2757812,346,103
2757826,323,103
2757829,329,103
2757846,351,103
2757856,321,103
2757862,350,103
2757876,349,103
2757887,344,103
2757896,367,103
2757905,335,103
2757912,349,103
2757928,346,103
2757937,320,103
2757945,354,103
2757958,330,103
2757961,331,103
2757979,349,103
2757990,316,103
2757996,330,103
2758010,421,103
2758020,658,103
2758029,660,103
2758041,493,103
2758051,222,103
2758061,323,103
2758072,313,103
2758079,332,103
2758079,310,103
2758103,315,103
2758112,339,103
2758120,309,103
2758128,338,103
2758144,334,103
2758153,324,103
2758162,358,103
2758174,335,103
2758179,353,103
2758194,366,103
2758205,341,103
2758212,370,103
2758221,355,103
2758236,361,103
2758245,388,103
2758245,367,103
2758267,409,103
2758277,416,103
2758287,415,103
2758295,457,103
2758308,443,103
2758318,463,103
2758328,465,103
2758339,416,103
2758345,411,103
2758360,355,103
2758367,321,103
2758378,325,103
2758390,280,103
2758395,299,103
2758410,293,103
2758421,278,103
2758429,308,103
2758441,278,103
2758452,292,103
2758461,305,103
2758471,280,103
2758478,313,103
2758493,298,103
2758503,296,103
2758511,320,103
2758523,293,103
2758534,318,103
2758544,313,103
2758555,298,103
2758562,329,103
2758574,302,103
2758585,311,103
2758595,326,103
2758605,298,103
2758612,323,103
2758626,309,103
2758629,304,103
2758646,326,103
2758657,297,103
2758662,323,103
2758677,320,103
2758688,306,103
2758695,340,103
2758708,314,103
2758719,326,103
2758728,338,103
2758739,305,103
2758745,335,103
2758745,320,103
2758770,317,103
2758778,342,103
2758791,312,103
2758801,334,103
2758811,337,103
2758821,319,103
2758829,350,103
2758841,324,103
2758852,343,103
2758861,363,103
2758873,330,103
2758878,359,103
2758893,336,103
2758903,321,103
2758913,343,103
2758923,312,103
2758928,335,103
2758944,336,103
2758944,315,103
2758963,346,103
2758976,311,103
2758985,432,107
2758995,659,107
2759006,659,107
2759012,454,107
2759026,218,107
2759037,303,107
2759045,338,107
2759045,299,107
2759067,319,107
2759077,323,107
2759089,307,107
2759095,341,107
2759109,320,107
2759119,331,107
2759128,353,107
2759139,327,107
2759145,360,107
2759160,354,107
2759170,347,107
2759178,378,107
2759178,350,107
2759201,372,107
2759212,384,107
2759220,368,107
2759228,411,107
2759228,401,107
2759253,418,107
2759262,451,107
2759273,433,107
2759279,470,107
2759293,463,107
2759304,441,107
2759312,437,107
2759323,365,107
2759334,347,107
2759345,325,107
2759355,283,107
2759365,302,107
2759376,278,107
2759386,280,107
2759395,302,107
2759405,271,107
2759417,300,107
2759428,291,107
2759437,277,107
2759445,311,107
2759457,284,107
2759467,303,107
2759478,307,107
2759488,283,107
2759495,316,107
2759509,293,107
2759519,293,107
2759529,315,107
2759540,284,107
2759545,310,107
2759561,304,107
2759570,288,107
2759578,317,107
2759578,287,107
2759596,298,107
2759606,306,107
2759622,279,107
2759629,311,107
2759629,291,107
2759653,293,107
2759662,317,107
2759673,285,107
2759678,312,107
2759694,308,107
2759704,295,107
2759712,324,107
2759724,296,107
2759728,309,107
2759745,318,107
2759755,291,107
2759765,322,107
2759776,302,107
2759779,300,107
2759795,323,107
2759807,293,107
2759812,317,107
2759827,313,107
2759838,296,107
2759845,326,107
2759858,297,107
2759868,310,107
2759879,320,107
2759889,292,107
2759895,323,107
2759909,303,107
2759914,302,107
2759929,326,107
2759940,296,107
2759950,321,107
2759960,318,107
2759970,301,107
2759978,332,107
2759992,306,107
2760002,316,107
2760012,329,107
2760022,301,107
2760028,333,107
2760042,316,107
2760053,314,107
2760063,348,107
2760066,322,107
2760079,343,107
2760094,338,107
2760104,317,107
2760112,343,107
2760125,314,107
2760135,324,107
2760145,339,107
2760156,308,107
2760162,340,107
2760176,324,107
2760187,304,107
2760195,417,103
2760207,641,103
2760218,659,103
2760228,546,103
2760238,200,103
2760245,322,103
2760245,308,103
2760269,302,103
2760279,317,103
2760279,287,103
2760295,320,103
2760310,307,103
2760319,302,103
2760329,334,103
2760340,308,103
2760351,334,103
2760361,337,103
2760371,318,103
2760379,354,103
2760379,331,103
2760402,343,103
2760411,360,103
2760423,334,103
2760429,372,103
2760429,369,103
2760453,369,103
2760462,412,103
2760470,396,103
2760484,429,103
2760494,442,103
2760504,426,103
2760512,454,103
2760525,412,103
2760536,388,103
2760545,368,103
2760556,310,103
2760566,319,103
2760577,294,103
2760587,277,103
2760595,302,103
2760608,272,103
2760618,291,103
2760628,295,103
2760638,270,103
2760645,304,103
2760659,281,103
2760662,288,103
2760678,308,103
2760690,277,103
2760695,305,103
2760710,294,103
2760721,283,103
2760728,314,103
2760741,281,103
2760746,301,103
2760761,307,103
2760772,285,103
2760778,318,103
2760785,294,103
2760795,298,103
2760812,316,103
2760823,285,103
2760829,311,103
2760844,302,103
2760846,291,103
2760863,323,103
2760874,293,103
2760878,314,103
2760895,322,103
2760906,299,103
2760912,333,103
2760925,310,103
2760936,313,103
2760945,333,103
2760956,301,103
2760964,328,103
2760977,317,103
2760987,302,103
2760994,334,103
2761007,305,103
2761013,323,103
2761028,331,103
2761028,306,103
2761046,340,103
2761059,318,103
2761069,319,103
2761078,340,103
2761090,308,103
2761095,336,103
2761110,328,103
2761116,313,103
2761128,344,103
2761128,313,103
2761152,331,103
2761161,341,103
2761172,316,103
2761179,347,103
2761179,327,103
2761196,326,103
2761212,349,103
2761223,317,103
2761228,344,103
2761244,336,103
2761254,320,103
2761263,353,103
2761275,321,103
2761280,337,103
2761295,348,103
2761305,321,103
2761312,352,103
2761325,333,103
2761329,334,103
2761345,367,103
2761357,339,103
2761364,360,103
2761377,353,103
2761380,331,103
2761395,354,103
2761409,324,103
2761419,337,103
2761429,346,103
2761440,317,103
2761445,350,103
2761459,329,103
2761470,317,103
2761478,451,102
2761490,658,102
2761495,659,102
2761511,476,102
2761521,210,102
2761529,337,102
2761529,308,102
2761546,304,102
2761562,317,102
2761573,288,102
2761579,320,102
2761579,302,102
2761603,297,102
2761612,325,102
2761624,297,102
2761629,326,102
2761644,329,102
2761655,313,102
2761662,344,102
2761674,316,102
2761685,326,102
2761695,346,102
2761706,322,102
2761712,360,102
2761717,356,102
2761736,360,102
2761745,401,102
2761745,384,102
2761767,420,102
2761777,427,102
2761788,412,102
2761795,441,102
2761809,399,102
2761819,373,102
2761828,355,102
2761839,298,102
2761846,307,102
2761860,279,102
2761870,265,102
2761879,291,102
2761890,260,102
2761895,281,102
2761911,280,102
2761921,265,102
2761928,295,102
2761942,269,102
2761952,279,102
2761962,297,102
2761973,269,102
2761983,302,102
2761993,290,102
2762004,283,102
2762012,311,102
2762024,281,102
2762029,304,102
2762044,306,102
2762055,282,102
2762064,315,102
2762064,288,102
2762079,294,102
2762094,312,102
2762106,284,102
2762116,312,102
2762126,300,102
2762137,294,102
2762145,323,102
2762145,291,102
2762161,314,102
2762178,317,102
2762188,296,102
2762195,329,102
2762209,305,102
2762219,310,102
2762229,328,102
2762229,299,102
2762246,328,102
2762260,317,102
2762271,303,102
2762280,334,102
2762280,307,102
2762301,326,102
2762311,331,102
2762321,308,102
2762329,339,102
2762342,318,102
2762345,322,102
2762363,341,102
2762373,311,102
2762378,339,102
2762394,328,102
2762404,322,102
2762413,353,102
2762424,320,102
2762435,336,102
2762444,344,102
2762456,320,102
2762461,351,102
2762476,332,102
2762479,344,102
2762495,372,102
2762495,340,102
2762512,367,102
2762522,351,102
2762530,331,102
2762545,355,102
2762545,327,102
2762562,342,102
2762578,347,102
2762589,320,102
2762595,353,102
2762609,320,102
2762619,413,103
2762628,658,103
2762628,659,103
2762645,527,103
2762660,219,103
2762670,300,103
2762679,347,103
2762692,308,103
2762695,325,103
2762712,334,103
2762719,314,103
2762729,347,103
2762729,328,103
2762745,335,103
2762762,359,103
2762774,331,103
2762778,360,103
2762794,355,103
2762804,342,103
2762811,372,103
2762824,346,103
2762835,366,103
2762845,381,103
2762856,363,103
2762866,403,103
2762876,395,103
2762887,410,103
2762895,446,103
2762908,429,103
2762917,463,103
2762928,463,103
2762937,445,103
2762945,453,103
2762958,389,103
2762969,364,103
2762978,343,103
2762990,297,103
2762995,314,103
2763009,290,103
2763020,286,103
2763029,310,103
2763029,278,103
2763045,301,103
2763061,300,103
2763071,286,103
2763078,319,103
2763091,296,103
2763102,310,103
2763111,322,103
2763122,294,103
2763128,328,103
2763128,310,103
2763153,312,103
2763161,334,103
2763174,302,103
2763179,326,103
2763194,322,103
2763205,305,103
2763211,336,103
2763225,309,103
2763229,316,103
2763245,329,103
2763256,298,103
2763262,328,103
2763276,313,103
2763279,310,103
2763296,335,103
2763296,306,103
2763313,329,103
2763328,328,103
2763339,308,103
2763345,339,103
2763359,313,103
2763369,324,103
2763378,336,103
2763389,307,103
2763396,339,103
2763410,321,103
2763421,314,103
2763428,341,103
2763441,309,103
2763451,333,103
2763461,332,103
2763471,313,103
2763478,349,103
2763492,333,103
2763503,346,103
2763511,356,103
2763523,327,103
2763529,349,103
2763535,328,103
2763554,321,103
2763561,345,103
2763574,313,103
2763585,335,103
2763595,337,103
2763604,314,103
2763612,344,103
2763626,451,106
2763636,658,106
2763645,659,106
2763656,386,106
2763667,241,106
2763677,319,106
2763686,313,106
2763695,329,106
2763708,298,106
2763712,319,106
2763728,322,106
2763738,305,106
2763745,338,106
2763759,317,106
2763769,329,106
2763778,348,106
2763790,322,106
2763796,356,106
2763811,343,106
2763821,338,106
2763829,369,106
2763841,339,106
2763851,368,106
2763861,375,106
2763872,364,106
2763879,412,106
2763893,399,106
2763903,422,106
2763912,450,106
2763923,428,106
2763929,458,106
2763944,436,106
2763946,399,106
2763962,387,106
2763975,318,106
2763979,313,106
2763995,297,106
2764005,265,106
2764014,294,106
2764026,267,106
2764036,272,106
2764045,290,106
2764056,259,106
2764064,287,106
2764077,275,106
2764088,267,106
2764095,295,106
2764108,266,106
2764118,288,106
2764128,291,106
2764128,267,106
2764145,299,106
2764159,274,106
2764170,279,106
2764178,297,106
2764190,265,106
2764200,293,106
2764211,283,106
2764221,271,106
2764229,301,106
2764242,269,106
2764245,286,106
2764261,292,106
2764272,269,106
2764278,304,106
2764292,283,106
2764304,287,106
2764312,309,106
2764323,277,106
2764334,307,106
2764344,299,106
2764354,286,106
2764361,318,106
2764375,288,106
2764386,308,106
2764395,312,106
2764396,289,106
2764413,322,106
2764426,299,106
2764436,303,106
2764445,325,106
2764457,294,106
2764468,322,106
2764478,313,106
2764488,301,106
2764495,331,106
2764508,301,106
2764516,319,106
2764529,324,106
2764530,298,106
2764545,331,106
2764560,309,106
2764570,313,106
2764579,335,106
2764590,303,106
2764601,334,106
2764611,324,106
2764617,310,106
2764631,341,106
2764632,311,106
2764646,329,106
2764662,335,106
2764672,309,106
2764678,342,106
2764694,320,106
2764703,324,106
2764713,346,106
2764724,314,106
2764734,343,106
2764745,344,106
2764755,335,106
2764762,362,106
2764767,327,106
2764786,341,106
2764795,342,106
2764805,313,106
2764816,345,106
2764827,324,106
2764837,324,106
2764845,348,106
2764857,317,106
2764865,332,106
2764878,372,106
2764878,582,101
2764895,659,101
2764895,648,101
2764920,247,101
2764929,301,101
2764940,316,101
2764947,330,101
2764959,307,101
2764963,306,101
2764980,330,101
2764992,300,101
2764995,330,101
2765012,327,101
2765022,316,101
2765028,352,101
2765041,326,101
2765052,340,101
2765061,350,101
2765074,327,101
2765079,360,101
2765079,344,101
2765104,349,101
2765113,377,101
2765124,355,101
2765135,392,101
2765145,399,101
2765155,397,101
2765162,441,101
2765176,423,101
2765186,443,101
2765195,453,101
2765206,415,101
2765214,420,101
2765214,366,101
2765229,335,101
2765245,334,101
2765257,286,101
2765262,304,101
2765278,297,101
2765289,276,101
2765295,310,101
2765295,281,101
2765319,291,101
2765328,305,101
2765328,276,101
2765346,309,101
2765346,292,101
2765371,289,101
2765378,314,101
2765391,282,101
2765401,307,101
2765411,302,101
2765423,285,101
2765429,317,101
2765443,288,101
2765453,302,101
2765462,314,101
2765473,285,101
2765484,316,101
2765494,296,101
2765505,293,101
2765513,316,101
2765525,283,101
2765535,309,101
2765545,306,101
2765556,289,101
2765562,325,101
2765576,300,101
2765587,311,101
2765594,325,101
2765606,297,101
2765617,329,101
2765627,310,101
2765638,305,101
2765645,330,101
2765658,298,101
2765669,321,101
2765679,316,101
2765689,301,101
2765695,333,101
2765710,307,101
2765720,320,101
2765729,333,101
2765729,305,101
2765751,337,101
2765760,320,101
2765771,315,101
2765779,340,101
2765792,309,101
2765802,333,101
2765812,330,101
2765823,311,101
2765828,344,101
2765843,315,101
2765853,326,101
2765863,340,101
2765874,312,101
2765883,343,101
2765895,324,101
2765904,317,101
2765913,343,101
2765925,310,101
2765935,332,101
2765945,330,101
2765956,310,101
2765961,342,101
2765976,312,101
2765986,322,101
2765995,334,101
2766007,309,101
2766013,350,101
2766013,335,101
2766038,323,101
2766045,348,101
2766059,311,101
2766068,326,101
2766078,323,101
2766089,303,101
2766095,335,101
2766109,308,101
2766120,317,101
2766128,332,101
2766141,290,101
2766150,407,100
2766161,651,100
2766172,659,100
2766178,533,100
2766192,189,100
2766195,309,100
2766211,320,100
2766223,284,100
2766228,318,100
2766242,294,100
2766248,300,100
2766262,320,100
2766274,293,100
2766285,328,100
2766295,317,100
2766305,313,100
2766315,347,100
2766326,319,100
2766336,346,100
2766345,348,100
2766355,328,100
2766366,362,100
2766376,341,100
2766379,358,100
2766395,383,100
2766408,368,100
2766414,408,100
2766428,410,100
2766438,416,100
2766445,453,100
2766459,430,100
2766469,446,100
2766478,432,100
2766490,381,100
2766495,376,100
2766511,322,100
2766520,305,100
2766529,306,100
2766541,269,100
2766551,294,100
2766562,280,100
2766571,271,100
2766578,302,100
2766592,270,100
2766603,292,100
2766612,296,100
2766623,276,100
2766629,310,100
2766629,288,100
2766646,296,100
2766662,310,100
2766671,283,100
2766682,313,100
2766695,303,100
2766705,295,100
2766713,324,100
2766726,296,100
2766736,316,100
2766745,317,100
2766757,294,100
2766767,326,100
2766777,300,100
2766778,305,100
2766795,322,100
2766808,293,100
2766815,324,100
2766828,312,100
2766829,306,100
2766847,336,100
2766860,307,100
2766862,326,100
2766878,329,100
2766889,307,100
2766900,338,100
2766910,314,100
2766921,317,100
2766928,332,100
2766942,306,100
2766951,334,100
2766962,326,100
2766966,317,100
2766978,348,100
2766993,319,100
2767003,340,100
2767013,341,100
2767024,318,100
2767034,353,100
2767044,332,100
2767054,337,100
2767061,352,100
2767075,323,100
2767086,351,100
2767095,340,100
2767105,334,100
2767113,360,100
2767126,331,100
2767137,358,100
2767146,369,100
2767146,343,100
2767162,375,100
2767178,347,100
2767188,344,100
2767195,358,100
2767208,329,100
2767219,355,100
2767228,345,100
2767239,336,100
2767244,363,100
2767260,319,100
2767269,397,100
2767279,652,103
2767291,659,103
2767301,624,103
2767311,229,103
2767314,302,103
2767329,354,103
2767341,313,103
2767352,336,103
2767362,328,103
2767372,319,103
2767378,349,103
2767393,323,103
2767403,344,103
2767413,354,103
2767423,334,103
2767434,368,103
2767444,349,103
2767446,357,103
2767462,376,103
2767474,349,103
2767479,378,103
2767495,376,103
2767495,372,103
2767514,409,103
2767521,390,103
2767537,421,103
2767545,441,103
2767557,431,103
2767563,476,103
2767578,460,103
2767579,461,103
2767594,460,103
2767609,396,103
2767619,385,103
2767628,343,103
2767639,306,103
2767650,321,103
2767660,283,103
2767671,298,103
2767679,302,103
2767691,278,103
2767701,309,103
2767711,285,103
2767721,287,103
2767730,310,103
2767730,283,103
2767753,311,103
2767762,305,103
2767772,294,103
2767778,324,103
2767794,294,103
2767804,310,103
2767814,318,103
2767824,290,103
2767835,322,103
2767845,302,103
2767855,304,103
2767861,324,103
2767876,292,103
2767886,319,103
2767895,309,103
2767907,294,103
2767914,323,103
2767927,293,103
2767937,307,103
2767945,313,103
2767957,290,103
2767969,324,103
2767978,302,103
2767989,305,103
2767995,326,103
2768009,295,103
2768019,321,103
2768029,313,103
2768040,299,103
2768050,330,103
2768060,298,103
2768070,312,103
2768078,321,103
2768090,296,103
2768101,328,103
2768112,307,103
2768122,306,103
2768128,328,103
2768143,296,103
2768152,323,103
2768161,315,103
2768161,302,103
2768178,332,103
2768194,301,103
2768205,316,103
2768214,326,103
2768218,299,103
2768229,333,103
2768245,311,103
2768245,313,103
2768262,335,103
2768276,301,103
2768279,330,103
2768294,323,103
2768298,306,103
2768317,339,103
2768327,320,103
2768338,340,103
2768346,345,103
2768358,314,103
2768367,343,103
2768378,314,103
2768389,313,103
2768395,335,103
2768409,303,103
2768420,328,103
2768428,322,103
2768440,305,103
2768450,329,103
2768461,411,102
2768471,658,102
2768479,659,102
2768479,435,102
2768502,232,102
2768512,302,102
2768521,304,102
2768528,311,102
2768543,279,102
2768553,307,102
2768562,303,102
2768574,293,102
2768579,329,102
2768595,303,102
2768604,321,102
2768614,335,102
2768621,312,102
2768635,347,102
2768645,328,102
2768656,329,102
2768662,353,102
2768676,326,102
2768687,356,102
2768695,358,102
2768707,352,102
2768716,396,102
2768716,382,102
2768729,410,102
2768744,433,102
2768758,415,102
2768769,454,102
2768778,429,102
2768790,408,102
2768795,399,102
2768810,330,102
2768819,330,102
2768828,303,102
2768840,275,102
2768845,302,102
2768861,269,102
2768872,284,102
2768879,294,102
2768892,263,102
2768902,295,102
2768911,277,102
2768922,275,102
2768929,301,102
2768929,269,102
2768946,297,102
2768962,293,102
2768974,277,102
2768984,308,102
2768994,278,102
2769005,292,102
2769015,302,102
2769025,276,102
2769035,310,102
2769046,292,102
2769046,288,102
2769062,311,102
2769077,280,102
2769079,303,102
2769095,300,102
2769108,285,102
2769118,316,102
2769128,286,102
2769138,300,102
2769145,316,102
2769145,290,102
2769169,324,102
2769178,307,102
2769190,306,102
2769196,333,102
2769196,298,102
2769220,323,102
2769229,317,102
2769242,299,102
2769251,330,102
2769262,301,102
2769270,313,102
2769279,328,102
2769292,298,102
2769295,332,102
2769311,315,102
2769323,313,102
2769333,338,102
2769344,307,102
2769354,332,102
2769362,328,102
2769374,310,102
2769385,342,102
2769395,314,102
2769405,326,102
2769415,338,102
2769415,310,102
2769428,343,102
2769445,325,102
2769457,322,102
2769467,350,102
2769477,315,102
2769487,340,102
2769495,338,102
2769508,319,102
2769517,350,102
2769528,320,102
2769539,332,102
2769546,345,102
2769560,316,102
2769569,350,102
2769578,332,102
2769590,327,102
2769596,361,102
2769606,334,102
2769621,356,102
2769629,350,102
2769629,326,102
2769651,350,102
2769662,320,102
2769672,329,102
2769679,339,102
2769693,309,102
2769695,341,102
2769712,324,102
2769723,306,102
2769729,402,98
2769729,615,98
2769745,659,98
2769762,581,98
2769775,193,98
2769779,312,98
2769795,305,98
2769805,298,98
2769815,308,98
2769826,280,98
2769836,311,98
2769844,296,98
2769857,292,98
2769865,323,98
2769865,296,98
2769878,324,98
2769895,327,98
2769909,312,98
2769916,346,98
2769928,319,98
2769939,329,98
2769946,346,98
2769960,322,98
2769970,360,98
2769978,353,98
2769990,359,98
2770001,401,98
2770011,385,98
2770021,423,98
2770028,430,98
2770042,419,98
2770045,453,98
2770062,413,98
2770073,395,98
2770078,373,98
2770092,313,98
2770103,319,98
2770112,286,98
2770124,276,98
2770134,296,98
2770145,263,98
2770154,286,98
2770164,285,98
2770164,266,98
2770185,302,98
2770195,275,98
2770206,289,98
2770216,305,98
2770219,276,98
2770236,308,98
2770245,295,98
2770245,284,98
2770261,311,98
2770278,287,98
2770288,306,98
2770295,307,98
2770308,288,98
2770319,319,98
2770328,294,98
2770338,302,98
2770344,318,98
2770344,287,98
2770370,317,98
2770378,306,98
2770390,295,98
2770401,322,98
2770411,293,98
2770422,317,98
2770428,316,98
2770443,299,98
2770445,334,98
2770461,305,98
2770472,312,98
2770478,328,98
2770485,296,98
2770494,326,98
2770512,315,98
2770524,306,98
2770529,335,98
2770545,304,98
2770555,329,98
2770562,332,98
2770576,311,98
2770586,344,98
2770595,320,98
2770606,327,98
2770616,343,98
2770627,314,98
2770629,347,98
2770645,334,98
2770658,326,98
2770668,355,98
2770679,325,98
2770688,342,98
2770695,346,98
2770709,324,98
2770720,357,98
2770728,334,98
2770740,344,98
2770745,355,98
2770761,331,98
2770771,370,98
2770779,360,98
2770791,346,98
2770801,371,98
2770811,332,98
2770822,349,98
2770828,348,98
2770828,326,98
2770845,357,98
2770862,335,98
2770872,341,98
2770878,350,98
2770894,332,98
2770905,540,99
2770912,659,99
2770924,659,99
2770935,343,99
2770945,244,99
2770956,341,99
2770962,342,99
2770976,314,99
2770986,347,99
2770995,325,99
2771007,335,99
2771016,352,99
2771027,327,99
2771029,360,99
2771044,353,99
2771058,346,99
2771068,377,99
2771078,350,99
2771078,372,99
2771095,376,99
2771095,359,99
2771120,395,99
2771128,378,99
2771140,390,99
2771150,416,99
2771160,401,99
2771168,444,99
2771180,445,99
2771187,449,99
2771193,484,99
2771209,457,99
2771222,468,99
2771232,443,99
2771239,383,99
2771253,379,99
2771263,327,99
2771274,313,99
2771274,319,99
2771291,286,99
2771304,313,99
2771307,300,99
2771324,291,99
2771336,317,99
2771339,288,99
2771355,308,99
2771365,312,99
2771373,292,99
2771386,326,99
2771396,304,99
2771406,308,99
2771417,327,99
2771425,297,99
2771425,324,99
2771439,311,99
2771457,298,99
2771469,326,99
2771474,296,99
2771489,313,99
2771499,317,99
2771507,294,99
2771519,325,99
2771524,300,99
2771541,304,99
2771551,322,99
2771557,291,99
2771571,320,99
2771581,311,99
2771589,301,99
2771602,332,99
2771612,303,99
2771623,319,99
2771633,321,99
2771640,299,99
2771653,331,99
2771663,307,99
2771673,309,99
2771685,328,99
2771690,298,99
2771705,327,99
2771715,316,99
2771724,306,99
2771724,331,99
2771742,302,99
2771756,320,99
2771766,321,99
2771774,298,99
2771786,329,99
2771797,305,99
2771806,309,99
2771817,327,99
2771823,298,99
2771839,327,99
2771848,316,99
2771857,305,99
2771857,336,99
2771874,305,99
2771890,322,99
2771900,328,99
2771907,306,99
2771921,339,99
2771930,316,99
2771940,317,99
2771951,342,99
2771956,318,99
2771971,346,99
2771981,331,99
2771989,318,99
2772002,339,99
2772013,303,99
2772023,317,99
2772034,322,99
2772039,296,99
2772054,332,99
2772064,312,99
2772073,305,99
2772085,336,99
2772095,478,101
2772104,659,101
2772115,658,101
2772125,275,101
2772136,256,101
2772140,295,101
2772156,299,101
2772166,301,101
2772174,277,101
2772174,310,101
2772191,290,101
2772206,296,101
2772218,320,101
2772228,291,101
2772238,324,101
2772249,319,101
2772256,309,101
2772269,340,101
2772274,313,101
2772290,332,101
2772300,339,101
2772307,320,101
2772320,361,101
2772324,348,101
2772340,358,101
2772352,391,101
2772357,373,101
2772371,417,101
2772382,420,101
2772389,416,101
2772402,449,101
2772413,412,101
2772422,408,101
2772429,380,101
2772438,322,101
2772454,328,101
2772464,289,101
2772474,279,101
2772478,293,101
2772493,262,101
2772505,289,101
2772515,279,101
2772518,268,101
2772536,298,101
2772544,268,101
2772557,287,101
2772566,296,101
2772577,269,101
2772578,305,101
2772595,283,101
2772595,286,101
2772618,307,101
2772627,275,101
2772638,304,101
2772644,296,101
2772659,284,101
2772667,314,101
2772677,284,101
2772690,300,101
2772700,308,101
2772711,282,101
2772721,316,101
2772728,294,101
2772742,295,101
2772744,317,101
2772761,286,101
2772772,316,101
2772778,309,101
2772793,296,101
2772804,327,101
2772810,299,101
2772823,316,101
2772834,325,101
2772844,298,101
2772854,330,101
2772863,309,101
2772875,310,101
2772886,332,101
2772894,298,101
2772906,326,101
2772912,318,101
2772926,306,101
2772936,340,101
2772944,310,101
2772957,328,101
2772962,337,101
2772977,311,101
2772977,342,101
2772996,322,101
2773008,322,101
2773019,342,101
2773028,310,101
2773039,337,101
2773045,330,101
2773060,314,101
2773069,346,101
2773078,315,101
2773090,330,101
2773094,340,101
2773111,313,101
2773121,343,101
2773127,320,101
2773142,320,101
2773152,340,101
2773160,308,101
2773172,333,101
2773178,322,101
2773178,309,101
2773194,342,101
2773212,310,101
2773225,322,101
2773227,340,101
2773244,323,101
2773255,352,101
2773261,327,101
2773276,325,101
2773285,338,101
2773294,302,101
2773305,327,101
2773316,319,101
2773326,305,101
2773337,336,101
2773343,307,101
2773358,312,101
2773367,347,101
2773377,515,98
2773388,659,98
2773394,657,98
2773408,251,98
2773419,275,98
2773427,306,98
2773439,319,98
2773450,309,98
2773459,294,98
2773471,326,98
2773477,299,98
2773491,319,98
2773495,330,98
2773511,307,98
2773521,344,98
2773532,329,98
2773542,334,98
2773553,360,98
2773561,331,98
2773573,359,98
2773583,357,98
2773593,342,98
2773604,380,98
2773610,360,98
2773624,383,98
2773635,404,98
2773644,393,98
2773655,439,98
2773660,432,98
2773676,440,98
2773685,466,98
2773693,428,98
2773707,430,98
2773716,391,98
2773727,344,98
2773737,346,98
2773744,294,98
2773758,297,98
2773768,302,98
2773777,273,98
2773789,302,98
2773794,286,98
2773794,284,98
2773820,308,98
2773829,280,98
2773839,309,98
2773850,300,98
2773861,287,98
2773870,320,98
2773878,290,98
2773891,305,98
2773901,318,98
2773911,291,98
2773922,324,98
2773928,304,98
2773942,305,98
2773952,328,98
2773961,295,98
2773973,316,98
2773983,311,98
2773994,297,98
2774004,327,98
2774010,297,98
2774024,311,98
2774035,323,98
2774044,298,98
2774055,335,98
2774066,319,98
2774076,314,98
2774078,338,98
2774095,309,98
2774107,334,98
2774111,331,98
2774127,315,98
2774137,347,98
2774145,319,98
2774158,332,98
2774169,345,98
2774177,319,98
2774188,351,98
2774195,335,98
2774210,334,98
2774220,358,98
2774227,327,98
2774241,353,98
2774245,350,98
2774261,334,98
2774270,365,98
2774278,337,98
2774292,348,98
2774302,361,98
2774310,334,98
2774322,365,98
2774328,349,98
2774344,346,98
2774353,370,98
2774361,346,98
2774374,376,98
2774384,373,98
2774394,352,98
2774404,377,98
2774411,341,98
2774425,351,98
2774435,360,98
2774444,330,98
2774444,361,98
2774466,343,98
2774476,340,98
2774477,352,98
2774493,352,98
2774507,589,99
2774511,659,99
2774527,656,99
2774537,286,99
2774544,275,99
2774559,342,99
2774569,341,99
2774578,309,99
2774578,340,99
2774600,324,99
2774609,321,99
2774620,347,99
2774628,320,99
2774628,347,99
2774651,349,99
2774661,334,99
2774672,370,99
2774678,346,99
2774692,357,99
2774702,370,99
2774710,346,99
2774723,378,99
2774733,366,99
2774743,369,99
2774754,404,99
2774761,385,99
2774775,423,99
2774784,436,99
2774795,428,99
2774805,468,99
2774812,441,99
2774825,440,99
2774836,422,99
2774844,355,99
2774856,351,99
2774867,307,99
2774877,285,99
2774888,301,99
2774894,264,99
2774907,285,99
2774917,281,99
2774928,261,99
2774938,290,99
2774945,263,99
2774959,277,99
2774970,292,99
2774978,265,99
2774990,300,99
2775000,285,99
2775011,281,99
2775020,305,99
2775027,272,99
2775041,295,99
2775052,292,99
2775061,272,99
2775071,306,99
2775077,279,99
2775092,289,99
2775103,301,99
2775110,275,99
2775123,305,99
2775128,288,99
2775144,280,99
2775153,305,99
2775163,274,99
2775163,296,99
2775182,299,99
2775195,281,99
2775206,315,99
2775211,288,99
2775226,297,99
2775229,313,99
2775245,283,99
2775256,313,99
2775267,298,99
2775277,291,99
2775288,317,99
2775295,286,99
2775307,311,99
2775318,308,99
2775328,290,99
2775339,324,99
2775345,298,99
2775345,308,99
2775369,322,99
2775378,294,99
2775390,326,99
2775400,310,99
2775411,306,99
2775421,331,99
2775427,299,99
2775442,322,99
2775444,323,99
2775460,302,99
2775472,336,99
2775477,311,99
2775493,320,99
2775503,335,99
2775511,308,99
2775524,337,99
2775533,321,99
2775544,315,99
2775554,342,99
2775561,310,99
2775574,330,99
2775585,340,99
2775594,326,99
2775606,358,99
2775614,327,99
2775626,330,99
2775627,337,99
2775644,306,99
2775658,337,99
2775668,320,99
2775678,313,99
2775687,341,99
2775694,311,99
2775708,318,99
2775718,366,99
2775729,571,100
2775739,659,100
2775744,637,100
2775760,226,100
2775770,299,100
2775777,306,100
2775790,318,100
2775795,303,100
2775811,295,100
2775821,324,100
2775828,294,100
2775828,320,100
2775844,324,100
2775860,307,100
2775873,345,100
2775878,323,100
2775894,334,100
2775903,352,100
2775910,324,100
2775922,358,100
2775928,348,100
2775945,342,100
2775945,376,100
2775960,354,100
2775976,387,100
2775985,401,100
2775994,392,100
2776006,438,100
2776016,422,100
2776026,437,100
2776037,453,100
2776045,414,100
2776058,418,100
2776064,370,100
2776077,332,100
2776088,335,100
2776094,288,100
2776109,300,100
2776113,298,100
2776128,273,100
2776128,305,100
2776144,278,100
2776160,284,100
2776162,303,100
2776178,274,100
2776191,305,100
2776193,294,100
2776211,287,100
2776221,315,100
2776227,285,100
2776227,306,100
2776244,308,100
2776261,287,100
2776273,317,100
2776283,293,100
2776293,301,100
2776304,318,100
2776311,287,100
2776324,318,100
2776335,302,100
2776344,294,100
2776355,320,100
2776363,287,100
2776376,308,100
2776386,312,100
2776394,289,100
2776407,322,100
2776416,300,100
2776427,308,100
2776437,327,100
2776444,297,100
2776458,327,100
2776462,315,100
2776477,305,100
2776488,332,100
2776495,300,100
2776509,320,100
2776515,323,100
2776528,300,100
2776540,334,100
2776550,312,100
2776560,321,100
2776571,338,100
2776578,310,100
2776578,340,100
2776596,327,100
2776611,318,100
2776622,346,100
2776627,313,100
2776643,333,100
2776644,337,100
2776661,315,100
2776673,346,100
2776678,324,100
2776694,331,100
2776705,350,100
2776710,317,100
2776724,348,100
2776735,336,100
2776744,326,100
2776756,354,100
2776761,322,100
2776776,341,100
2776786,341,100
2776794,319,100
2776806,353,100
2776817,329,100
2776827,334,100
2776838,352,100
2776844,321,100
2776858,349,100
2776861,343,100
2776879,340,100
2776889,370,100
2776894,335,100
2776910,352,100
2776920,347,100
2776927,318,100
2776940,350,100
2776950,325,100
2776961,330,100
2776971,347,100
2776977,318,100
2776992,346,100
2776995,330,100
2777011,446,98
2777023,659,98
2777031,659,98
2777043,449,98
2777045,245,98
2777062,311,98
2777071,342,98
2777084,306,98
2777094,311,98
2777104,330,98
2777110,297,98
2777125,330,98
2777135,322,98
2777144,314,98
2777156,349,98
2777165,322,98
2777177,343,98
2777186,349,98
2777194,327,98
2777207,360,98
2777217,336,98
2777227,345,98
2777238,370,98
2777244,346,98
2777258,384,98
2777269,384,98
2777278,386,98
2777278,430,98
2777294,411,98
2777310,438,98
2777319,448,98
2777328,418,98
2777328,434,98
2777344,378,98
2777361,349,98
2777371,342,98
2777378,292,98
2777392,307,98
2777402,291,98
2777411,276,98
2777422,304,98
2777433,273,98
2777443,289,98
2777451,293,98
2777461,268,98
2777473,302,98
2777485,280,98
2777494,284,98
2777506,306,98
2777513,277,98
2777526,306,98
2777527,296,98
2777544,284,98
2777557,312,98
2777561,281,98
2777576,299,98
2777587,302,98
2777594,277,98
2777607,309,98
2777617,286,98
2777627,289,98
2777638,307,98
2777644,274,98
2777658,300,98
2777670,291,98
2777677,279,98
2777689,308,98
