Timestamp,ECGValue,BPM
2598079,281,101
2598090,310,101
2598100,289,101
2598110,296,101
2598118,311,101
2598122,285,101
2598140,312,101
2598150,300,101
2598162,294,101
2598168,318,101
2598182,292,101
2598192,313,101
2598200,314,101
2598200,297,101
2598217,326,101
2598234,305,101
2598240,312,101
2598249,330,101
2598265,299,101
2598265,327,101
2598285,319,101
2598292,310,101
2598305,336,101
2598309,309,101
2598326,325,101
2598330,330,101
2598343,306,101
2598356,340,101
2598365,316,101
2598375,321,101
2598386,340,101
2598398,314,101
2598408,341,101
2598419,335,101
2598427,324,101
2598439,353,101
2598449,326,101
2598459,341,101
2598469,345,101
2598476,324,101
2598490,355,101
2598500,336,101
2598509,337,101
2598521,357,101
2598531,330,101
2598541,352,101
2598551,346,101
2598559,338,101
2598572,375,101
2598582,352,101
2598592,363,101
2598604,365,101
2598612,333,101
2598623,357,101
2598634,335,101
2598643,334,101
2598654,355,101
2598664,326,101
2598664,348,101
2598684,332,101
2598692,349,101
2598705,591,99
2598715,659,99
2598726,656,99
2598737,273,99
2598747,258,99
2598757,345,99
2598767,317,99
2598775,312,99
2598788,335,99
2598797,309,99
2598808,330,99
2598818,333,99
2598827,321,99
2598839,353,99
2598849,330,99
2598859,346,99
2598870,362,99
2598876,339,99
2598890,367,99
2598901,354,99
2598909,353,99
2598909,379,99
2598925,358,99
2598941,387,99
2598952,396,99
2598958,390,99
2598972,437,99
2598976,427,99
2598993,445,99
2599003,468,99
2599013,446,99
2599024,468,99
2599034,429,99
2599042,386,99
2599055,374,99
2599065,318,99
2599075,319,99
2599076,309,99
2599093,283,99
2599106,312,99
2599117,287,99
2599125,293,99
2599136,307,99
2599143,282,99
2599143,312,99
2599167,301,99
2599175,295,99
2599188,323,99
2599192,298,99
2599208,318,99
2599219,323,99
2599226,300,99
2599240,329,99
2599249,307,99
2599259,312,99
2599270,329,99
2599281,301,99
2599291,325,99
2599301,315,99
2599309,304,99
2599322,329,99
2599332,302,99
2599342,318,99
2599352,322,99
2599360,300,99
2599360,330,99
2599383,313,99
2599392,317,99
2599404,336,99
2599410,308,99
2599425,336,99
2599435,328,99
2599442,314,99
2599454,340,99
2599465,313,99
2599475,329,99
2599482,335,99
2599492,310,99
2599506,340,99
2599517,321,99
2599526,323,99
2599536,345,99
2599543,323,99
2599557,356,99
2599564,348,99
2599576,333,99
2599576,356,99
2599599,319,99
2599609,329,99
2599618,336,99
2599625,310,99
2599625,340,99
2599643,324,99
2599659,321,99
2599670,331,99
2599681,367,99
2599691,639,105
2599702,659,105
2599709,580,105
2599722,233,105
2599726,285,105
2599742,324,105
2599753,323,105
2599759,294,105
2599773,325,105
2599778,310,105
2599792,309,105
2599804,335,105
2599814,309,105
2599824,336,105
2599835,340,105
2599843,327,105
2599856,362,105
2599866,338,105
2599875,348,105
2599875,362,105
2599893,335,105
2599907,367,105
2599917,359,105
2599926,363,105
2599938,399,105
2599948,383,105
2599958,421,105
2599968,436,105
2599975,426,105
2599989,464,105
2599999,438,105
2600009,428,105
2600020,412,105
2600026,344,105
2600040,339,105
2600050,305,105
2600060,280,105
2600071,302,105
2600076,271,105
2600092,287,105
2600102,288,105
2600111,265,105
2600122,295,105
2600132,271,105
2600142,275,105
2600153,293,105
2600159,266,105
2600173,295,105
2600183,286,105
2600193,277,105
2600193,304,105
2600209,274,105
2600224,291,105
2600236,293,105
2600244,270,105
2600255,304,105
2600266,282,105
2600276,286,105
2600287,305,105
2600297,274,105
2600306,301,105
2600317,293,105
2600326,279,105
2600337,309,105
2600348,279,105
2600358,296,105
2600369,303,105
2600377,281,105
2600389,314,105
2600399,293,105
2600409,294,105
2600420,318,105
2600428,287,105
2600441,314,105
2600451,309,105
2600460,294,105
2600460,323,105
2600476,295,105
2600492,307,105
2600503,317,105
2600509,292,105
2600523,324,105
2600533,305,105
2600542,303,105
2600544,329,105
2600560,300,105
2600574,325,105
2600585,321,105
2600592,306,105
2600605,336,105
2600615,310,105
2600625,321,105
2600635,331,105
2600644,306,105
2600656,337,105
2600667,321,105
2600676,317,105
2600687,341,105
2600692,316,105
2600707,347,105
2600717,347,105
2600726,325,105
2600739,353,105
2600749,320,105
2600759,323,105
2600768,334,105
2600776,308,105
2600776,339,105
2600800,323,105
2600809,317,105
2600821,337,105
2600826,317,105
2600826,513,105
2600844,659,105
2600860,658,105
2600872,334,105
2600882,241,105
2600892,322,105
2600902,323,105
2600909,286,105
2600923,317,105
2600933,305,105
2600942,299,105
2600954,331,105
2600959,304,105
2600975,327,105
2600984,334,105
2600992,315,105
2601005,347,105
2601016,325,105
2601026,331,105
2601036,350,105
2601044,325,105
2601056,359,105
2601066,351,105
2601076,349,105
2601087,390,105
2601092,372,105
2601108,404,105
2601118,422,105
2601125,412,105
2601139,452,105
2601149,433,105
2601158,432,105
2601169,433,105
2601176,370,105
2601190,365,105
2601200,328,105
2601208,297,105
2601220,317,105
2601231,282,105
2601241,295,105
2601252,300,105
2601260,275,105
2601260,305,105
2601283,284,105
2601293,285,105
2601302,306,105
2601310,276,105
2601318,304,105
2601326,296,105
2601344,282,105
2601355,310,105
2601364,280,105
2601374,294,105
2601376,304,105
2601392,278,105
2601406,311,105
2601410,292,105
2601425,292,105
2601436,313,105
2601444,281,105
2601456,306,105
2601467,299,105
2601476,283,105
2601487,315,105
2601492,287,105
2601508,301,105
2601517,314,105
2601528,288,105
2601539,322,105
2601549,305,105
2601560,303,105
2601570,328,105
2601576,296,105
2601590,319,105
2601592,313,105
2601609,294,105
2601621,325,105
2601626,296,105
2601642,306,105
2601644,319,105
2601658,293,105
2601672,324,105
2601683,310,105
2601692,304,105
2601693,328,105
2601710,295,105
2601724,318,105
2601734,316,105
2601744,297,105
2601754,327,105
2601764,301,105
2601775,309,105
2601785,325,105
2601793,295,105
2601806,324,105
2601812,313,105
2601826,308,105
2601837,334,105
2601847,302,105
2601857,332,105
2601868,338,105
2601876,320,105
2601888,346,105
2601898,318,105
2601909,317,105
2601919,331,105
2601927,299,105
2601927,328,105
2601944,316,105
2601959,309,105
2601969,336,105
2601976,298,105
2601976,341,105
2602001,542,104
2602010,659,104
2602022,657,104
2602025,253,104
2602042,257,104
2602052,333,104
2602059,291,104
2602073,317,104
2602083,308,104
2602092,300,104
2602103,329,104
2602114,302,104
2602124,324,104
2602134,335,104
2602144,318,104
2602155,354,104
2602159,337,104
2602175,342,104
2602185,363,104
2602192,336,104
2602206,364,104
2602216,358,104
2602226,354,104
2602226,392,104
2602244,374,104
2602258,405,104
2602268,428,104
2602276,418,104
2602276,460,104
2602292,448,104
2602309,453,104
2602320,466,104
2602327,412,104
2602339,400,104
2602350,362,104
2602360,322,104
2602371,332,104
2602375,292,104
2602390,302,104
2602401,310,104
2602409,286,104
2602421,313,104
2602432,293,104
2602442,294,104
2602453,314,104
2602459,285,104
2602473,307,104
2602477,306,104
2602492,292,104
2602492,324,104
2602509,298,104
2602524,308,104
2602535,318,104
2602544,292,104
2602555,323,104
2602565,306,104
2602575,303,104
2602586,325,104
2602593,296,104
2602606,315,104
2602616,309,104
2602626,291,104
2602637,321,104
2602644,300,104
2602644,313,104
2602669,320,104
2602676,294,104
2602676,327,104
2602693,313,104
2602709,309,104
2602719,333,104
2602726,303,104
2602740,326,104
2602750,325,104
2602759,307,104
2602771,340,104
2602781,314,104
2602791,320,104
2602801,334,104
2602808,311,104
2602822,337,104
2602826,324,104
2602842,318,104
2602853,351,104
2602863,330,104
2602874,350,104
2602876,349,104
2602893,326,104
2602904,348,104
2602914,324,104
2602925,329,104
2602935,344,104
2602945,316,104
2602955,347,104
2602962,334,104
2602975,315,104
2602987,407,109
2602993,637,109
2603007,659,109
2603017,605,109
2603026,211,109
2603037,317,109
2603048,325,109
2603058,320,109
2603068,334,109
2603075,309,109
2603089,339,109
2603093,330,109
2603109,322,109
2603120,353,109
2603126,332,109
2603126,354,109
2603150,362,109
2603160,343,109
2603167,372,109
2603181,352,109
2603191,356,109
2603202,379,109
2603209,354,109
2603223,387,109
2603232,388,109
2603243,387,109
2603253,429,109
2603259,418,109
2603274,449,109
2603284,467,109
2603292,448,110
2603305,476,110
2603315,440,110
2603325,406,110
2603335,389,110
2603345,329,110
2603356,329,110
2603367,311,110
2603376,289,110
2603387,314,110
2603393,287,110
2603407,297,110
2603418,305,110
2603426,279,110
2603438,312,110
2603445,293,110
2603459,295,110
2603469,318,110
2603476,292,110
2603489,320,110
2603500,315,110
2603508,301,110
2603520,330,110
2603525,300,110
2603540,312,110
2603545,320,110
2603559,296,110
2603571,326,110
2603582,309,110
2603593,306,110
2603602,328,110
2603610,298,110
2603623,320,110
2603626,315,110
2603642,298,110
2603654,328,110
2603664,302,110
2603675,312,110
2603676,324,110
2603692,298,110
2603705,327,110
2603715,314,110
2603726,310,110
2603735,335,110
2603745,305,110
2603756,325,110
2603766,323,110
2603775,302,110
2603787,332,110
2603792,307,110
2603808,316,110
2603818,332,110
2603826,303,110
2603838,333,110
2603848,319,110
2603859,313,110
2603869,334,110
2603876,310,110
2603890,340,110
2603899,343,110
2603908,318,110
2603920,345,110
2603926,313,110
2603926,315,110
2603946,330,110
2603959,299,110
2603972,326,110
2603982,317,110
2603993,311,110
2604003,332,110
2604009,295,110
2604024,432,112
2604034,658,112
2604042,659,112
2604053,437,112
2604064,206,112
2604075,301,112
2604085,317,112
2604092,279,112
2604106,310,112
2604109,300,112
2604126,291,112
2604136,323,112
2604146,296,112
2604158,317,112
2604167,325,112
2604175,304,112
2604188,338,112
2604198,320,112
2604208,323,112
2604214,342,112
2604226,314,112
2604226,346,112
2604250,344,112
2604259,339,112
2604270,377,112
2604275,362,112
2604289,393,112
2604300,415,112
2604309,404,112
2604321,446,112
2604326,429,112
2604342,427,112
2604351,426,112
2604358,360,112
2604372,350,112
2604382,316,112
2604392,285,112
2604402,303,112
2604412,268,112
2604420,281,112
2604434,288,112
2604443,263,112
2604454,295,112
2604465,272,112
2604475,270,112
2604485,292,112
2604492,263,112
2604506,290,112
2604515,287,112
2604525,271,112
2604536,302,112
2604547,273,112
2604547,286,112
2604560,296,112
2604576,269,112
2604576,302,112
2604598,284,112
2604608,282,112
2604619,307,112
2604626,275,112
2604640,299,112
2604649,296,112
2604659,278,112
2604669,310,112
2604676,283,112
2604690,296,112
2604692,307,112
2604710,282,112
2604722,315,112
2604725,300,112
2604742,296,112
2604752,323,112
2604760,292,112
2604767,314,112
2604777,311,112
2604793,294,112
2604803,322,112
2604809,295,112
2604824,304,112
2604835,321,112
2604842,294,112
2604855,326,112
2604865,313,112
2604875,307,112
2604885,333,112
2604892,303,112
2604906,324,112
2604917,324,112
2604925,306,112
2604937,337,112
2604947,311,112
2604957,319,112
2604968,335,112
2604976,308,112
2604988,338,112
2604998,323,112
2605008,316,112
2605018,346,112
2605026,317,112
2605039,337,112
2605047,340,112
2605058,319,112
2605071,350,112
2605077,323,112
2605091,335,112
2605101,362,112
2605109,334,112
2605121,358,112
2605132,346,112
2605141,328,112
2605152,351,112
2605162,317,112
2605173,336,112
2605183,339,112
2605192,317,112
2605204,348,112
2605214,320,112
2605224,323,112
2605226,479,108
2605242,658,108
2605255,659,108
2605265,409,108
2605276,223,108
2605286,340,108
2605292,303,108
2605307,308,108
2605316,315,108
2605326,292,108
2605326,325,108
2605347,304,108
2605358,310,108
2605368,333,108
2605376,306,108
2605389,338,108
2605393,331,108
2605408,319,108
2605419,348,108
2605425,319,108
2605440,336,108
2605447,347,108
2605460,327,108
2605470,366,108
2605476,355,108
2605476,368,108
2605492,405,108
2605509,386,108
2605523,426,108
2605533,429,108
2605542,416,108
2605553,440,108
2605559,394,108
2605573,375,108
2605576,349,108
2605592,298,108
2605604,308,108
2605609,278,108
2605625,270,108
2605635,292,108
2605642,260,108
2605655,285,108
2605663,279,108
2605676,262,108
2605686,293,108
2605693,265,108
2605693,277,108
2605717,294,108
2605725,269,108
2605738,301,108
2605747,286,108
2605758,286,108
2605768,309,108
2605775,277,108
2605789,301,108
2605799,300,108
2605808,283,108
2605820,314,108
2605825,288,108
2605840,297,108
2605850,311,108
2605859,283,108
2605871,316,108
2605881,300,108
2605892,296,108
2605901,322,108
2605909,294,108
2605922,320,108
2605933,319,108
2605943,300,108
2605947,332,108
2605959,308,108
2605974,315,108
2605984,330,108
2605993,302,108
2606005,333,108
2606014,317,108
2606024,312,108
2606035,338,108
2606042,310,108
2606056,333,108
2606066,334,108
2606076,314,108
2606076,346,108
2606093,324,108
2606107,329,108
2606118,344,108
2606126,317,108
2606137,345,108
2606148,332,108
2606158,322,108
2606169,350,108
2606176,322,108
2606176,342,108
2606199,344,108
2606209,325,108
2606220,360,108
2606226,348,108
2606241,356,108
2606251,370,108
2606259,339,108
2606271,361,108
2606277,343,108
2606292,330,108
2606302,353,108
2606309,327,108
2606319,346,108
2606325,350,108
2606342,324,108
2606354,345,108
2606359,433,108
2606366,658,108
2606384,660,108
2606393,472,108
2606405,236,108
2606415,321,108
2606426,321,108
2606436,335,108
2606442,307,108
2606455,324,108
2606463,333,108
2606476,312,108
2606487,346,108
2606492,331,108
2606508,337,108
2606512,363,108
2606526,338,108
2606538,365,108
2606547,361,108
2606559,349,108
2606569,382,108
2606575,357,108
2606589,376,108
2606600,391,108
2606609,378,108
2606621,419,108
2606631,417,108
2606641,432,108
2606651,467,108
2606659,449,108
2606659,477,108
2606682,470,108
2606692,434,108
2606693,428,108
2606710,364,108
2606723,347,108
2606726,334,108
2606742,295,108
2606747,320,108
2606760,297,108
2606769,290,108
2606785,312,108
2606791,281,108
2606791,304,108
2606807,301,108
2606826,287,108
2606833,320,108
2606833,300,108
2606850,313,108
2606867,326,108
2606877,299,108
2606882,328,108
2606882,311,108
2606907,305,108
2606916,330,108
2606924,301,108
2606939,322,108
2606949,322,108
2606950,303,108
2606966,332,108
2606980,308,108
2606983,316,108
2607000,329,108
2607010,300,108
2607016,329,108
2607031,313,108
2607041,309,108
2607049,337,108
2607062,308,108
2607071,330,108
2607083,331,108
2607093,313,108
2607099,343,108
2607113,316,108
2607124,324,108
2607133,341,108
2607144,311,108
2607154,340,108
2607164,328,108
2607175,320,108
2607183,343,108
2607195,313,108
2607200,342,108
2607216,350,108
2607226,326,108
2607233,354,108
2607247,325,108
2607249,324,108
2607266,339,108
2607275,311,108
2607283,338,108
2607297,327,108
2607300,318,108
2607317,344,108
2607329,302,108
2607334,385,108
2607350,635,112
2607360,659,112
2607366,604,112
2607380,212,112
2607390,287,112
2607400,332,112
2607411,289,112
2607421,316,112
2607431,307,112
2607441,298,112
2607450,328,112
2607462,300,112
2607473,321,112
2607482,332,112
2607494,312,112
2607500,345,112
2607500,326,112
2607524,333,112
2607533,354,112
2607544,323,112
2607554,353,112
2607565,349,112
2607575,343,112
2607582,381,112
2607595,364,112
2607606,394,112
2607616,417,112
2607621,406,112
2607633,449,112
2607633,433,112
2607650,430,112
2607666,432,112
2607678,365,112
2607682,352,112
2607699,316,112
2607709,278,112
2607716,296,112
2607729,261,112
2607740,273,112
2607750,284,112
2607750,259,112
2607766,289,112
2607776,270,112
2607783,269,112
2607801,290,112
2607801,260,112
2607817,286,112
2607827,285,112
2607833,271,112
2607850,302,112
2607863,276,112
2607867,288,112
2607882,298,112
2607893,272,112
2607899,303,112
2607914,285,112
2607925,285,112
2607933,309,112
2607945,276,112
2607956,299,112
2607965,297,112
2607968,280,112
2607983,311,112
2607983,286,112
2608006,296,112
2608017,309,112
2608027,283,112
2608033,315,112
2608047,299,112
2608050,294,112
2608066,320,112
2608079,289,112
2608089,313,112
2608099,312,112
2608109,294,112
2608116,325,112
2608129,299,112
2608133,307,112
2608150,322,112
2608150,294,112
2608166,323,112
2608176,310,112
2608191,303,112
2608200,333,112
2608211,305,112
2608216,327,112
2608222,328,112
2608243,307,112
2608249,338,112
2608249,312,112
2608273,318,112
2608283,333,112
2608294,305,112
2608299,334,112
2608315,322,112
2608324,315,112
2608333,343,112
2608333,314,112
2608349,335,112
2608366,339,112
2608375,317,112
2608382,347,112
2608397,324,112
2608400,338,112
2608416,360,112
2608427,330,112
2608433,355,112
2608448,340,112
2608458,323,112
2608466,347,112
2608478,315,112
2608489,333,112
2608499,340,112
2608509,317,112
2608517,349,112
2608529,314,112
2608533,364,112
2608550,608,107
2608561,659,107
2608566,646,107
2608581,246,107
2608592,275,107
2608600,345,107
2608612,299,107
2608623,313,107
2608633,321,107
2608642,297,107
2608650,331,107
2608663,312,107
2608674,317,107
2608683,342,107
2608683,315,107
2608699,344,107
2608715,337,107
2608725,323,107
2608732,352,107
2608745,326,107
2608750,346,107
2608766,359,107
2608776,341,107
2608783,381,107
2608783,372,107
2608807,385,107
2608817,419,107
2608827,400,107
2608834,436,107
2608849,438,107
2608858,424,107
2608866,443,107
2608878,387,107
2608889,365,107
2608899,344,107
2608909,293,107
2608918,307,107
2608930,280,107
2608940,277,107
2608950,298,107
2608950,265,107
2608971,288,107
2608981,282,107
2608991,263,107
2608999,292,107
2608999,267,107
2609017,280,107
2609032,292,107
2609043,266,107
2609050,297,107
2609064,280,107
2609074,276,107
2609083,302,107
2609094,272,107
2609105,295,107
2609115,293,107
2609119,274,107
2609133,306,107
2609146,280,107
2609156,290,107
2609166,305,107
2609176,278,107
2609183,309,107
2609197,292,107
2609208,287,107
2609216,316,107
2609228,285,107
2609238,308,107
2609248,310,107
2609259,292,107
2609266,322,107
2609279,300,107
2609284,309,107
2609300,323,107
2609300,295,107
2609316,324,107
2609330,313,107
2609341,306,107
2609350,333,107
2609361,301,107
2609371,323,107
2609382,327,107
2609392,308,107
2609399,338,107
2609413,313,107
2609424,320,107
2609433,336,107
2609443,308,107
2609450,336,107
2609450,327,107
2609474,319,107
2609483,345,107
2609483,316,107
2609499,337,107
2609516,340,107
2609526,320,107
2609532,354,107
2609532,333,107
2609556,335,107
2609566,352,107
2609577,327,107
2609583,364,107
2609583,360,107
2609608,343,107
2609616,372,107
2609628,337,107
2609639,345,107
2609649,347,107
2609650,325,107
2609666,358,107
2609680,336,107
2609683,340,107
2609700,356,107
2609710,315,107
2609721,440,105
2609731,658,105
2609733,659,105
2609750,523,105
2609761,210,105
2609772,318,105
2609782,338,105
2609793,304,105
2609800,331,105
2609813,314,105
2609821,319,105
2609833,340,105
2609844,317,105
2609850,347,105
2609850,344,105
2609875,333,105
2609883,370,105
2609895,346,105
2609906,358,105
2609915,367,105
2609926,342,105
2609932,375,105
2609947,365,105
2609957,370,105
2609966,400,105
2609977,384,105
2609988,424,105
2609998,434,105
2610009,431,105
2610017,471,105
2610029,452,105
2610039,463,105
2610049,459,105
2610060,400,105
2610066,394,105
2610080,343,105
2610083,317,105
2610099,326,105
2610111,289,105
2610116,308,105
2610131,302,105
2610141,281,105
2610151,309,105
2610162,284,105
2610171,297,105
2610182,313,105
2610182,289,105
2610199,320,105
2610213,308,105
2610224,305,105
2610233,329,105
2610245,299,105
2610251,320,105
2610265,319,105
2610274,299,105
2610282,331,105
2610295,307,105
2610300,315,105
2610316,329,105
2610326,301,105
2610333,329,105
2610347,314,105
2610357,306,105
2610366,330,105
2610378,301,105
2610388,321,105
2610398,322,105
2610409,302,105
2610417,336,105
2610420,311,105
2610439,317,105
2610449,335,105
2610451,305,105
2610466,334,105
2610481,320,105
2610490,311,105
2610500,339,105
2610503,308,105
2610522,329,105
2610531,333,105
2610542,312,105
2610551,340,105
2610563,316,105
2610571,320,105
2610583,339,105
2610583,309,105
2610600,336,105
2610614,325,105
2610624,315,105
2610633,343,105
2610644,312,105
2610651,332,105
2610666,337,105
2610671,315,105
2610682,343,105
2610696,329,105
2610707,341,105
2610717,359,105
2610727,327,105
2610733,350,105
2610746,332,105
2610752,318,105
2610767,345,105
2610779,318,105
2610783,333,105
2610799,340,105
2610809,315,105
2610817,334,105
2610823,348,105
2610840,568,106
2610849,659,106
2610860,651,106
2610867,253,106
2610881,279,106
2610891,312,106
2610899,324,106
2610912,293,106
2610922,307,106
2610932,315,106
2610942,291,106
2610952,324,106
2610962,310,106
2610973,317,106
2610983,340,106
2610994,311,106
2611000,340,106
2611014,335,106
2611024,321,106
2611032,351,106
2611045,328,106
2611053,348,106
2611066,360,106
2611076,341,106
2611083,385,106
2611083,381,106
2611107,393,106
2611116,431,106
2611124,410,106
2611132,439,106
2611148,437,106
2611153,409,106
2611166,411,106
2611178,347,106
2611189,327,106
2611199,314,106
2611200,271,106
2611217,292,106
2611226,273,106
2611232,268,106
2611249,291,106
2611253,260,106
2611266,283,106
2611275,281,106
2611283,262,106
2611300,296,106
2611300,270,106
2611322,282,106
2611332,296,106
2611343,268,106
2611353,298,106
2611353,282,106
2611367,278,106
2611383,304,106
2611394,275,106
2611400,297,106
2611400,296,106
2611416,276,106
2611433,308,106
2611445,281,106
2611453,290,106
2611466,303,106
2611477,276,106
2611482,306,106
2611482,294,106
2611500,288,106
2611516,315,106
2611528,288,106
2611533,310,106
2611533,313,106
2611553,294,106
2611567,325,106
2611577,302,106
2611583,307,106
2611600,325,106
2611610,295,106
2611617,323,106
2611624,311,106
2611641,302,106
2611649,330,106
2611653,300,106
2611666,321,106
2611681,325,106
2611684,304,106
2611699,336,106
2611712,313,106
2611723,318,106
2611733,335,106
2611744,305,106
2611749,334,106
2611764,323,106
2611773,312,106
2611783,342,106
2611794,312,106
2611804,331,106
2611814,336,106
2611826,315,106
2611833,348,106
2611846,324,106
2611854,327,106
2611866,346,106
2611877,316,106
2611883,343,106
2611897,335,106
2611899,322,106
2611916,351,106
2611927,323,106
2611933,339,106
2611948,355,106
2611959,337,106
2611968,366,106
2611979,343,106
2611983,341,106
2612000,354,106
2612010,320,106
2612018,344,106
2612030,337,106
2612033,324,106
2612050,353,106
2612062,325,106
2612069,327,106
2612082,381,106
2612092,579,104
2612099,659,104
2612113,646,104
2612123,233,104
2612132,307,104
2612143,312,104
2612150,321,104
2612154,316,104
2612174,299,104
2612183,332,104
2612195,306,104
2612205,324,104
2612216,339,104
2612226,316,104
2612233,351,104
2612246,334,104
2612256,332,104
2612265,358,104
2612277,330,104
2612283,356,104
2612283,356,104
2612308,342,104
2612315,381,104
2612328,364,104
2612338,385,104
2612349,411,104
2612359,396,104
2612366,438,104
2612379,433,104
2612390,435,104
2612400,458,105
2612411,419,105
2612418,418,105
2612431,383,105
2612441,333,105
2612449,340,105
2612461,296,105
2612472,299,105
2612482,309,105
2612493,277,105
2612499,306,105
2612512,288,105
2612523,280,105
2612532,305,105
2612544,274,105
2612549,299,105
2612563,300,105
2612575,282,105
2612583,315,105
2612583,290,105
2612603,297,105
2612616,308,105
2612626,279,105
2612634,308,105
2612634,296,105
2612656,288,105
2612666,313,105
2612677,284,105
2612683,303,105
2612683,305,105
2612708,282,105
2612716,313,105
2612729,288,105
2612738,292,105
2612749,312,105
2612759,283,105
2612766,312,105
2612780,301,105
2612791,293,105
2612799,320,105
2612810,293,105
2612819,312,105
2612831,316,105
2612834,292,105
2612849,322,105
2612863,297,105
2612867,301,105
2612882,321,105
2612892,289,105
2612900,319,105
2612900,309,105
2612924,297,105
2612933,325,105
2612945,296,105
2612950,312,105
2612964,318,105
2612974,295,105
2612983,328,105
2612983,304,105
2612999,308,105
2613016,327,105
2613025,295,105
2613033,323,105
2613047,316,105
2613057,303,105
2613066,334,105
2613078,305,105
2613088,320,105
2613099,329,105
2613108,306,105
2613116,336,105
2613128,315,105
2613139,318,105
2613149,349,105
2613160,323,105
2613167,344,105
2613180,337,105
2613190,315,105
2613199,339,105
2613211,309,105
2613221,325,105
2613231,334,105
2613242,306,105
2613250,335,105
2613262,310,105
2613273,323,105
2613283,511,101
2613284,659,101
2613300,658,101
2613314,312,101
2613318,231,101
2613332,336,101
2613345,301,101
2613350,309,101
2613364,319,101
2613366,296,101
2613382,330,101
2613396,313,101
2613399,315,101
2613415,345,101
2613427,319,101
2613433,349,101
2613447,350,101
2613457,338,101
2613466,371,101
2613478,344,101
2613488,358,101
2613499,374,101
2613509,352,101
2613516,393,101
2613530,388,101
2613540,396,101
2613549,435,101
2613560,417,101
2613569,453,101
2613581,459,101
2613591,445,101
2613600,470,101
2613612,425,101
2613621,399,101
2613632,379,101
2613642,324,101
2613649,332,101
2613663,306,101
2613673,293,101
2613683,314,101
2613693,282,101
2613699,302,101
2613714,302,101
2613724,282,101
2613733,314,101
2613745,290,101
2613755,302,101
2613765,320,101
2613776,292,101
2613783,322,101
2613796,308,101
2613806,303,101
2613816,329,101
2613826,299,101
2613833,319,101
2613847,322,101
2613857,304,101
2613868,335,101
2613868,309,101
2613883,314,101
2613899,330,101
2613909,300,101
2613917,326,101
2613929,314,101
2613940,303,101
2613950,333,101
2613961,307,101
2613966,328,101
2613981,331,101
2613982,309,101
2614000,339,101
2614012,317,101
2614022,321,101
2614032,339,101
2614042,308,101
2614050,334,101
2614064,323,101
2614067,312,101
2614082,342,101
2614094,312,101
2614099,329,101
2614114,334,101
2614125,312,101
2614133,344,101
2614145,323,101
2614149,327,101
2614165,344,101
2614176,314,101
2614183,341,101
2614196,332,101
2614207,321,101
2614216,350,101
2614227,320,101
2614238,333,101
2614248,344,101
2614258,326,101
2614266,361,101
2614269,336,101
2614282,338,101
2614299,350,101
2614309,315,101
2614315,338,101
2614330,331,101
2614341,317,101
2614350,346,101
2614358,316,101
2614367,325,101
2614376,338,101
2614392,471,102
2614400,659,102
2614400,659,102
2614417,344,102
2614433,257,102
2614443,309,102
2614449,328,102
2614458,315,102
2614474,301,102
2614483,331,102
2614494,304,102
2614505,318,102
2614515,331,102
2614525,308,102
2614532,343,102
2614545,328,102
2614556,327,102
2614566,353,102
2614577,324,102
2614583,349,102
2614583,347,102
2614607,335,102
2614616,369,102
2614628,349,102
2614633,372,102
2614649,397,102
2614658,384,102
2614667,429,102
2614679,423,102
2614689,428,102
2614700,456,102
2614700,420,102
2614716,421,102
2614731,383,102
2614740,330,102
2614750,334,102
2614760,288,102
2614766,286,102
2614782,296,102
2614793,266,102
2614799,294,102
2614813,278,102
2614822,271,102
2614832,297,102
2614843,266,102
2614850,288,102
2614864,290,102
2614875,273,102
2614883,306,102
2614895,283,102
2614904,291,102
2614915,304,102
2614926,275,102
2614933,303,102
2614946,288,102
2614956,282,102
2614966,309,102
2614976,279,102
2614987,299,102
2614997,297,102
2614999,275,102
2615017,308,102
2615028,283,102
2615033,291,102
2615049,307,102
2615058,279,102
2615066,309,102
2615080,298,102
2615083,291,102
2615100,321,102
2615110,292,102
2615121,314,102
2615130,316,102
2615141,294,102
2615149,327,102
2615162,303,102
2615169,307,102
2615182,325,102
2615192,296,102
2615200,324,102
2615200,312,102
2615217,303,102
2615233,333,102
2615233,305,102
2615249,324,102
2615265,329,102
2615266,307,102
2615282,338,102
2615295,314,102
2615300,318,102
2615315,334,102
2615326,304,102
2615333,332,102
2615333,323,102
2615350,312,102
2615367,340,102
2615377,312,102
2615383,329,102
2615398,337,102
2615408,313,102
2615416,344,102
2615428,325,102
2615439,326,102
2615449,344,102
2615459,319,102
2615469,355,102
2615480,349,102
2615490,332,102
2615499,361,102
2615499,325,102
2615521,337,102
2615531,341,102
2615533,317,102
2615550,348,102
2615562,327,102
2615572,329,102
2615583,342,102
2615593,320,102
2615599,513,102
2615613,659,102
2615624,658,102
2615633,349,102
2615644,241,102
2615650,334,102
2615665,329,102
2615675,296,102
2615683,328,102
2615695,309,102
2615706,311,102
2615715,337,102
2615725,310,102
2615734,338,102
2615746,337,102
2615757,323,102
2615766,355,102
2615778,329,102
2615783,343,102
2615799,356,102
2615808,334,102
2615816,371,102
2615829,357,102
2615833,363,102
2615849,398,102
2615860,380,102
2615867,418,102
2615880,430,102
2615890,426,102
2615899,464,102
2615899,441,102
2615917,449,102
2615931,440,102
2615942,378,102
2615949,373,102
2615962,329,102
2615972,305,102
2615983,318,102
2615993,281,102
2615999,301,102
2616014,298,102
2616024,277,102
2616033,307,102
2616044,280,102
2616055,292,102
2616065,306,102
2616075,278,102
2616083,311,102
2616096,296,102
2616106,293,102
2616116,317,102
2616127,285,102
2616132,306,102
2616147,303,102
2616150,283,102
2616166,315,102
2616178,289,102
2616183,299,102
2616198,312,102
2616200,284,102
2616216,314,102
2616229,298,102
2616233,290,102
2616250,318,102
2616259,287,102
2616266,308,102
2616280,308,102
2616291,288,102
2616300,324,102
2616311,300,102
2616317,309,102
2616331,325,102
2616334,296,102
2616350,327,102
2616363,313,102
2616373,304,102
2616382,329,102
2616393,296,102
2616400,317,102
2616414,318,102
2616424,298,102
2616433,331,102
2616445,308,102
2616449,315,102
2616466,333,102
2616475,303,102
2616484,333,102
2616496,322,102
2616499,310,102
2616516,338,102
2616526,306,102
2616532,326,102
2616547,330,102
2616550,305,102
2616566,339,102
2616579,316,102
2616583,323,102
2616599,340,102
2616609,309,102
2616617,338,102
2616630,329,102
2616640,316,102
2616650,344,102
2616661,312,102
2616666,329,102
2616681,340,102
2616691,323,102
2616699,354,102
2616712,328,102
2616722,328,102
2616731,336,102
2616742,303,102
2616749,329,102
2616763,319,102
2616773,306,102
2616783,335,102
2616794,303,102
2616799,312,102
2616814,348,102
2616824,524,100
2616833,659,100
2616845,655,100
2616856,232,100
2616865,278,100
2616867,301,100
2616883,316,100
2616896,304,100
2616900,291,100
2616916,319,100
2616927,292,100
2616938,312,100
2616948,324,100
2616958,303,100
2616966,339,100
2616979,323,100
2616983,328,100
2616999,353,100
2617009,323,100
2617019,351,100
2617030,347,100
2617040,336,100
2617049,373,100
2617061,354,100
2617070,378,100
2617081,401,100
2617092,390,100
2617099,433,100
2617112,425,100
2617116,432,100
2617132,459,100
2617142,423,100
2617150,425,100
2617163,386,100
2617172,338,100
2617183,340,100
2617183,295,100
2617199,296,100
2617215,299,100
2617224,270,100
2617233,297,100
2617245,279,100
2617250,273,100
2617266,298,100
2617277,267,100
2617282,291,100
2617282,292,100
2617300,279,100
2617317,313,100
2617328,290,100
2617333,303,100
2617348,315,100
2617358,289,100
2617365,322,100
2617378,306,100
2617384,302,100
2617399,328,100
2617409,297,100
2617420,319,100
2617431,318,100
2617440,298,100
2617449,328,100
2617461,302,100
2617471,314,100
2617482,333,100
2617492,306,100
2617500,337,100
2617512,325,100
2617523,322,100
2617533,348,100
2617533,319,100
2617549,342,100
2617564,339,100
2617575,318,100
2617583,349,100
2617594,324,100
2617599,331,100
2617614,345,100
2617625,318,100
2617632,347,100
2617646,335,100
2617657,327,100
2617666,355,100
2617677,326,100
2617683,344,100
2617697,346,100
2617708,325,100
2617716,355,100
2617728,331,100
2617738,337,100
2617749,352,100
2617759,320,100
2617766,347,100
2617780,341,100
2617783,341,100
2617799,370,100
2617810,338,100
2617817,354,100
2617825,351,100
2617841,327,100
2617849,356,100
2617862,335,100
2617867,339,100
2617883,355,100
2617892,326,100
2617899,342,100
2617913,376,100
2617920,595,103
2617933,659,103
2617943,638,103
2617950,237,103
2617964,299,103
2617973,318,103
2617983,335,103
2617983,309,103
2617998,313,103
2618015,332,103
2618026,304,103
2618033,334,103
2618046,329,103
2618049,320,103
2618066,354,103
2618071,329,103
2618084,348,103
2618084,356,103
2618107,335,103
2618117,366,103
2618126,345,103
2618134,351,103
2618134,378,103
2618159,355,103
2618166,391,103
2618180,398,103
2618190,399,103
2618200,442,103
2618200,427,103
2618216,449,103
2618232,458,102
2618234,422,102
2618249,425,102
2618262,365,102
2618266,330,102
2618282,325,102
2618293,279,102
2618299,298,102
2618313,288,102
2618323,273,102
2618333,301,102
2618333,271,102
2618349,282,102
2618364,289,102
2618375,262,102
2618382,294,102
2618396,275,102
2618406,278,102
2618416,305,102
2618426,275,102
2618433,302,102
2618447,297,102
2618457,281,102
2618466,311,102
2618477,283,102
2618488,297,102
2618498,307,102
2618509,281,102
2618517,313,102
2618529,293,102
2618539,290,102
2618550,311,102
2618560,279,102
2618566,305,102
2618580,300,102
2618591,283,102
2618599,313,102
2618611,288,102
2618616,303,102
2618631,317,102
2618633,291,102
2618650,324,102
2618662,307,102
2618673,302,102
2618682,324,102
2618692,293,102
2618700,315,102
2618714,311,102
2618721,295,102
2618733,325,102
2618733,300,102
2618750,313,102
2618760,327,102
2618774,301,102
2618783,332,102
2618783,316,102
2618806,311,102
2618816,337,102
2618826,307,102
2618833,330,102
2618847,328,102
2618857,312,102
2618866,343,102
2618877,317,102
2618883,328,102
2618883,340,102
2618908,311,102
2618917,340,102
2618925,324,102
2618932,315,102
2618949,340,102
2618960,309,102
2618965,332,102
2618980,334,102
2618991,315,102
2618999,346,102
2619011,327,102
2619022,348,102
2619031,365,102
2619042,333,102
2619049,359,102
2619063,337,102
2619068,322,102
2619083,345,102
2619094,313,102
2619100,332,102
2619114,334,102
2619116,314,102
2619133,339,102
2619133,322,102
2619149,491,102
2619164,659,102
2619175,659,102
2619183,345,102
2619196,249,102
2619207,319,102
2619216,334,102
2619226,295,102
2619233,315,102
2619246,316,102
2619257,296,102
2619266,331,102
2619279,310,102
2619289,322,102
2619298,342,102
2619300,316,102
2619316,347,102
2619329,338,102
2619334,328,102
2619350,356,102
2619360,330,102
2619366,353,102
2619381,361,102
2619391,348,102
2619399,390,102
2619412,380,102
2619421,400,102
2619432,433,102
2619433,416,102
2619449,453,102
2619462,444,102
2619473,427,102
2619483,436,102
2619494,374,102
2619500,359,102
2619514,336,102
2619520,294,102
2619533,316,102
2619545,287,102
2619549,290,102
2619565,310,102
2619576,279,102
2619583,307,102
2619583,296,102
2619600,282,102
2619616,311,102
2619627,283,102
2619634,300,102
2619634,308,102
2619649,284,102
2619666,315,102
2619678,290,102
2619684,291,102
2619684,309,102
2619700,279,102
2619716,307,102
2619730,300,102
2619733,288,102
2619749,318,102
2619760,288,102
2619766,303,102
2619781,310,102
2619783,285,102
2619799,318,102
2619812,297,102
2619822,298,102
2619832,320,102
2619843,289,102
2619850,315,102
2619863,310,102
2619872,296,102
2619882,328,102
2619894,300,102
2619899,314,102
2619914,324,102
2619925,299,102
2619933,332,102
2619945,313,102
2619956,312,102
2619965,336,102
2619976,306,102
2619982,331,102
2619997,326,102
2620007,310,102
2620017,341,102
2620027,312,102
2620038,325,102
2620047,335,102
2620050,308,102
2620066,339,102
2620079,320,102
2620083,319,102
2620099,343,102
2620110,313,102
2620116,338,102
2620123,335,102
2620133,320,102
2620149,353,102
2620161,327,102
2620171,338,102
2620182,350,102
2620191,323,102
2620199,353,102
2620212,334,102
2620222,329,102
2620232,351,102
2620244,321,102
2620249,342,102
2620263,337,102
2620274,328,102
2620283,366,102
2620283,340,102
2620299,348,102
2620315,357,102
2620325,321,102
2620336,351,102
2620346,334,102
2620356,329,102
2620366,352,102
2620377,321,102
2620382,342,102
2620397,327,102
2620407,351,102
2620416,606,99
2620428,659,99
2620433,629,99
2620448,244,99
2620459,269,99
2620466,341,99
2620480,313,99
2620489,304,99
2620499,332,99
2620509,299,99
2620517,321,99
2620517,322,99
2620541,303,99
2620550,336,99
2620560,311,99
2620572,320,99
2620582,334,99
2620592,307,99
2620599,338,99
2620613,326,99
2620623,320,99
2620632,354,99
2620643,330,99
2620649,360,99
2620664,373,99
2620675,363,99
2620682,408,99
2620695,396,99
2620700,412,99
2620700,433,99
2620726,404,99
2620733,427,99
2620745,390,99
2620750,346,99
2620766,342,99
2620776,285,99
2620783,288,99
2620783,283,99
2620808,256,99
2620816,286,99
2620829,264,99
2620833,268,99
2620849,282,99
2620850,252,99
2620866,281,99
2620879,272,99
2620890,263,99
2620899,295,99
2620910,266,99
2620916,288,99
2620931,293,99
2620942,270,99
2620949,302,99
2620961,280,99
2620972,284,99
2620982,304,99
2620993,275,99
2620999,305,99
2621013,297,99
2621023,284,99
2621033,312,99
2621033,281,99
2621049,300,99
2621066,305,99
2621075,281,99
2621083,314,99
2621095,293,99
2621099,297,99
2621115,317,99
2621126,291,99
2621133,316,99
2621133,310,99
2621156,298,99
2621166,329,99
2621177,300,99
2621183,316,99
2621197,324,99
2621208,299,99
2621216,333,99
2621228,313,99
2621239,314,99
2621249,336,99
2621259,306,99
2621268,332,99
2621280,326,99
2621290,312,99
2621299,341,99
2621311,314,99
2621316,330,99
2621331,337,99
2621334,314,99
2621349,344,99
2621362,326,99
2621367,325,99
2621382,346,99
2621383,321,99
2621402,359,99
2621413,357,99
2621424,337,99
2621433,364,99
2621444,329,99
2621449,338,99
2621464,343,99
2621475,317,99
2621483,347,99
2621495,329,99
2621506,326,99
2621516,345,99
2621526,312,99
2621533,460,101
2621547,659,101
2621557,659,101
2621566,417,101
2621578,213,101
2621583,317,101
2621599,330,101
2621599,297,101
2621616,327,101
2621628,310,101
2621639,313,101
2621649,337,101
2621660,310,101
2621666,337,101
2621672,339,101
2621690,327,101
2621700,362,101
2621710,343,101
2621721,355,101
2621731,370,101
2621742,346,101
2621749,381,101
2621762,370,101
2621773,373,101
2621783,406,101
2621793,390,101
2621799,426,101
2621813,440,101
2621824,437,101
2621833,477,101
2621845,457,101
2621851,464,101
2621864,459,101
2621868,395,101
2621882,388,101
2621896,341,101
2621906,313,101
2621916,324,101
2621927,286,101
2621934,304,101
2621947,302,101
2621950,282,101
2621966,313,101
2621978,291,101
2621988,300,101
2621999,316,101
2622009,292,101
2622018,325,101
2622030,313,101
2622033,308,101
2622049,335,101
2622060,305,101
2622067,325,101
2622081,324,101
2622091,304,101
2622100,337,101
2622112,313,101
2622117,320,101
2622132,336,101
2622142,307,101
2622149,336,101
2622163,323,101
2622167,315,101
2622183,341,101
2622193,311,101
2622199,330,101
2622214,332,101
2622224,311,101
2622232,345,101
2622245,321,101
2622255,328,101
2622264,343,101
2622267,316,101
2622283,342,101
2622283,330,101
2622307,317,101
2622316,345,101
2622327,317,101
2622333,335,101
2622333,337,101
2622358,316,101
2622366,346,101
2622378,323,101
2622382,326,101
2622399,346,101
2622409,316,101
2622415,341,101
2622430,335,101
2622440,339,101
2622450,361,101
2622460,326,101
2622468,340,101
2622481,337,101
2622491,311,101
2622500,340,101
2622500,318,101
2622516,320,101
2622532,341,101
2622533,310,101
2622549,325,101
2622563,375,101
2622573,607,104
2622583,659,104
2622583,587,104
2622600,212,104
2622614,300,104
2622625,305,104
2622633,321,104
2622645,300,104
2622656,300,104
2622665,322,104
2622676,294,104
2622683,324,104
2622697,320,104
2622707,309,104
2622717,345,104
2622727,320,104
2622737,338,104
2622748,348,104
2622759,325,104
2622767,359,104
2622767,341,104
2622789,343,104
2622799,368,104
2622809,345,104
2622816,380,104
2622830,389,104
2622841,391,104
2622850,435,104
2622862,415,104
2622866,436,104
2622881,445,104
2622891,404,104
2622899,403,104
2622912,348,104
2622923,315,104
2622932,313,104
2622942,267,104
2622949,287,104
2622963,278,104
2622974,262,104
2622982,290,104
2622995,260,104
2623004,272,104
2623015,284,104
2623025,257,104
2623033,290,104
2623045,273,104
2623056,270,104
2623066,297,104
2623076,266,104
2623082,289,104
2623097,288,104
2623107,269,104
2623117,301,104
2623118,273,104
2623134,286,104
2623148,298,104
2623158,272,104
2623166,303,104
2623179,285,104
2623189,282,104
2623199,306,104
2623210,276,104
2623216,300,104
2623230,301,104
2623241,279,104
2623249,313,104
2623261,286,104
2623271,298,104
2623281,314,104
2623284,286,104
2623299,320,104
2623313,306,104
2623316,300,104
2623333,326,104
2623334,295,104
2623349,315,104
2623364,314,104
2623367,295,104
2623382,326,104
2623395,303,104
2623400,313,104
2623415,328,104
2623426,301,104
2623433,334,104
2623446,320,104
2623457,312,104
2623466,339,104
2623476,308,104
2623486,328,104
2623497,329,104
2623508,308,104
2623517,340,104
2623528,316,104
2623533,324,104
2623549,341,104
2623550,312,104
2623566,342,104
2623576,330,104
2623590,323,104
2623600,349,104
2623600,318,104
2623616,339,104
2623630,339,104
2623641,320,104
2623650,352,104
2623662,326,104
2623667,333,104
2623673,351,104
2623683,322,104
2623699,351,104
2623713,349,104
2623723,352,104
2623733,369,104
2623744,336,104
2623750,349,104
2623765,345,104
2623774,319,104
2623782,348,104
2623795,324,104
2623800,331,104
2623816,353,104
2623826,318,104
2623832,340,104
2623846,456,101
2623856,658,101
2623866,659,101
2623877,433,101
2623883,239,101
2623898,335,101
2623900,308,101
2623916,329,101
2623928,307,101
2623939,311,101
2623949,332,101
2623960,302,101
2623966,332,101
2623979,327,101
2623990,318,101
2623999,349,101
2624010,322,101
2624021,341,101
2624031,348,101
2624042,324,101
2624049,359,101
2624062,341,101
2624072,349,101
2624082,374,101
2624093,354,101
2624100,392,101
