Timestamp,ECGValue,BPM
2673481,286,106
2673492,309,106
2673500,306,106
2673500,295,106
2673523,324,106
2673532,296,106
2673533,309,106
2673549,318,106
2673549,294,106
2673566,323,106
2673583,305,106
2673594,303,106
2673605,323,106
2673615,295,106
2673625,319,106
2673632,315,106
2673646,301,106
2673649,331,106
2673666,304,106
2673677,318,106
2673683,329,106
2673696,302,106
2673699,331,106
2673717,313,106
2673728,313,106
2673732,334,106
2673749,306,106
2673759,332,106
2673766,327,106
2673780,310,106
2673789,352,106
2673799,330,106
2673811,339,106
2673819,347,106
2673819,316,106
2673841,339,106
2673849,319,106
2673862,314,106
2673866,338,106
2673881,309,106
2673882,333,106
2673899,331,106
2673912,302,106
2673923,380,106
2673933,584,107
2673944,659,107
2673950,638,107
2673965,211,107
2673970,299,107
2673982,321,107
2673995,300,107
2674000,320,107
2674000,289,107
2674025,314,107
2674033,314,107
2674033,298,107
2674050,331,107
2674066,312,107
2674077,326,107
2674087,343,107
2674098,318,107
2674107,349,107
2674117,336,107
2674128,330,107
2674133,359,107
2674149,336,107
2674149,362,107
2674167,368,107
2674180,361,107
2674190,404,107
2674199,393,107
2674210,416,107
2674221,440,107
2674231,420,107
2674242,452,107
2674249,429,107
2674262,398,107
2674272,389,107
2674282,327,107
2674293,323,107
2674299,306,107
2674314,276,107
2674324,304,107
2674332,278,107
2674343,285,107
2674349,300,107
2674365,269,107
2674375,297,107
2674383,285,107
2674383,279,107
2674406,305,107
2674416,277,107
2674426,297,107
2674433,298,107
2674447,276,107
2674457,309,107
2674466,286,107
2674471,291,107
2674484,307,107
2674498,278,107
2674508,305,107
2674517,291,107
2674529,282,107
2674533,308,107
2674548,278,107
2674559,295,107
2674566,297,107
2674580,277,107
2674590,308,107
2674599,285,107
2674612,290,107
2674617,307,107
2674632,280,107
2674642,310,107
2674649,299,107
2674662,290,107
2674672,317,107
2674682,288,107
2674694,305,107
2674700,308,107
2674714,286,107
2674723,316,107
2674733,297,107
2674744,303,107
2674750,320,107
2674765,292,107
2674775,323,107
2674783,313,107
2674783,301,107
2674803,329,107
2674816,301,107
2674827,317,107
2674833,322,107
2674833,300,107
2674850,330,107
2674866,309,107
2674878,315,107
2674882,333,107
2674898,301,107
2674909,336,107
2674918,339,107
2674929,328,107
2674939,354,107
2674949,324,107
2674960,332,107
2674970,334,107
2674980,308,107
2674991,342,107
2674999,316,107
2675011,320,107
2675021,341,107
2675032,302,107
2675043,342,107
2675049,520,106
2675063,659,106
2675072,658,106
2675083,292,106
2675093,256,106
2675104,334,106
2675113,302,106
2675118,325,106
2675133,304,106
2675145,311,106
2675155,332,106
2675165,305,106
2675166,332,106
2675182,332,106
2675196,324,106
2675199,356,106
2675216,334,106
2675225,350,106
2675233,360,106
2675247,336,106
2675258,370,106
2675265,353,106
2675278,361,106
2675282,391,106
2675298,371,106
2675309,409,106
2675318,418,106
2675318,420,106
2675340,461,106
2675349,443,106
2675361,458,106
2675367,461,106
2675381,410,106
2675391,406,106
2675400,352,106
2675400,321,106
2675419,324,106
2675432,282,106
2675443,300,106
2675449,296,106
2675463,275,106
2675473,308,106
2675483,280,106
2675483,293,106
2675499,305,106
2675511,283,106
2675524,313,106
2675532,299,106
2675544,298,106
2675556,321,106
2675566,292,106
2675571,316,106
2675583,314,106
2675596,299,106
2675599,331,106
2675616,305,106
2675627,315,106
2675637,328,106
2675648,300,106
2675659,329,106
2675666,314,106
2675678,309,106
2675688,333,106
2675699,304,106
2675709,330,106
2675716,330,106
2675729,316,106
2675732,347,106
2675750,322,106
2675761,331,106
2675765,342,106
2675780,317,106
2675791,345,106
2675799,329,106
2675812,324,106
2675820,347,106
2675832,317,106
2675832,339,106
2675851,339,106
2675863,330,106
2675873,368,106
2675882,342,106
2675893,350,106
2675898,358,106
2675915,321,106
2675925,349,106
2675932,332,106
2675945,325,106
2675949,352,106
2675966,324,106
2675976,345,106
2675983,334,106
2675997,386,106
2675999,657,111
2676016,659,111
2676024,585,111
2676038,242,111
2676048,292,111
2676058,349,111
2676065,323,111
2676079,314,111
2676089,339,111
2676099,310,111
2676109,333,111
2676116,335,111
2676130,319,111
2676133,354,111
2676149,334,111
2676149,344,111
2676167,363,111
2676181,337,111
2676192,368,111
2676199,357,111
2676212,349,111
2676223,379,111
2676233,356,111
2676243,386,111
2676250,399,111
2676250,394,111
2676275,442,111
2676282,432,111
2676295,449,111
2676300,472,111
2676315,439,111
2676326,446,111
2676333,399,111
2676346,353,111
2676356,348,111
2676366,296,111
2676377,299,111
2676383,296,111
2676397,272,111
2676399,303,111
2676415,278,111
2676428,282,111
2676438,298,111
2676448,269,111
2676459,299,111
2676466,289,111
2676480,280,111
2676483,310,111
2676499,282,111
2676510,300,111
2676520,304,111
2676530,280,111
2676532,314,111
2676548,289,111
2676562,294,111
2676572,312,111
2676582,283,111
2676592,310,111
2676599,299,111
2676612,286,111
2676623,313,111
2676632,285,111
2676643,302,111
2676653,307,111
2676664,283,111
2676674,315,111
2676682,295,111
2676695,299,111
2676705,320,111
2676715,288,111
2676725,316,111
2676733,308,111
2676746,296,111
2676757,322,111
2676766,292,111
2676777,308,111
2676783,312,111
2676798,288,111
2676807,321,111
2676816,300,111
2676828,304,111
2676838,326,111
2676849,296,111
2676859,324,111
2676866,316,111
2676880,302,111
2676890,331,111
2676899,301,111
2676910,317,111
2676916,324,111
2676930,298,111
2676941,330,111
2676950,310,111
2676950,313,111
2676970,336,111
2676982,305,111
2676993,331,111
2676999,324,111
2677013,312,111
2677023,340,111
2677033,310,111
2677043,331,111
2677049,347,111
2677064,320,111
2677076,347,111
2677083,326,111
2677095,320,111
2677099,337,111
2677115,304,111
2677126,332,111
2677132,327,111
2677146,311,111
2677149,342,111
2677167,307,111
2677177,323,111
2677187,487,111
2677198,658,111
2677208,659,111
2677215,347,111
2677228,232,111
2677232,337,111
2677248,292,111
2677248,310,111
2677266,307,111
2677280,290,111
2677289,323,111
2677299,298,111
2677299,314,111
2677317,329,111
2677331,305,111
2677341,340,111
2677349,326,111
2677361,323,111
2677371,348,111
2677383,319,111
2677392,345,111
2677398,348,111
2677398,341,111
2677423,377,111
2677433,357,111
2677444,382,111
2677449,408,111
2677465,394,111
2677474,439,111
2677483,431,111
2677495,431,111
2677499,452,111
2677516,404,111
2677525,395,111
2677533,358,111
2677547,309,111
2677549,321,111
2677565,283,111
2677573,286,111
2677588,296,111
2677598,266,111
2677607,298,111
2677618,280,111
2677628,274,111
2677633,300,111
2677648,269,111
2677659,294,111
2677669,294,111
2677680,274,111
2677682,306,111
2677699,277,111
2677711,287,111
2677719,302,111
2677732,273,111
2677742,304,111
2677749,290,111
2677762,282,111
2677773,309,111
2677782,279,111
2677793,299,111
2677799,298,111
2677814,278,111
2677823,310,111
2677833,284,111
2677833,293,111
2677849,310,111
2677865,284,111
2677866,315,111
2677882,303,111
2677896,295,111
2677899,323,111
2677915,290,111
2677926,309,111
2677937,311,111
2677940,289,111
2677957,321,111
2677965,294,111
2677974,302,111
2677988,319,111
2677999,290,111
2678000,320,111
2678015,309,111
2678029,303,111
2678033,330,111
2678050,298,111
2678059,318,111
2678068,322,111
2678081,298,111
2678091,328,111
2678101,306,111
2678111,310,111
2678119,329,111
2678131,302,111
2678134,330,111
2678148,319,111
2678163,310,111
2678173,340,111
2678183,313,111
2678191,332,111
2678204,335,111
2678214,317,111
2678224,358,111
2678235,337,111
2678238,338,111
2678255,357,111
2678264,318,111
2678271,342,111
2678286,329,111
2678296,322,111
2678305,346,111
2678317,320,111
2678326,338,111
2678337,335,111
2678338,312,111
2678356,489,108
2678369,659,108
2678372,659,108
2678388,394,108
2678399,219,108
2678406,332,108
2678419,317,108
2678426,295,108
2678439,327,108
2678451,297,108
2678455,315,108
2678471,324,108
2678472,303,108
2678488,341,108
2678502,323,108
2678512,329,108
2678522,352,108
2678533,327,108
2678538,357,108
2678553,350,108
2678556,339,108
2678572,368,108
2678584,347,108
2678588,369,108
2678604,388,108
2678604,377,108
2678625,421,108
2678635,418,108
2678639,436,108
2678655,464,108
2678666,438,108
2678672,462,108
2678686,435,108
2678696,387,108
2678705,381,108
2678713,322,108
2678724,318,108
2678737,312,108
2678747,281,108
2678755,309,108
2678768,286,108
2678779,285,108
2678788,308,108
2678788,279,108
2678807,306,108
2678820,302,108
2678825,284,108
2678840,315,108
2678850,291,108
2678861,303,108
2678871,312,108
2678882,289,108
2678889,320,108
2678902,304,108
2678905,305,108
2678922,326,108
2678933,295,108
2678938,320,108
2678953,314,108
2678963,298,108
2678974,327,108
2678983,298,108
2678994,311,108
2679005,327,108
2679015,302,108
2679025,333,108
2679025,319,108
2679040,319,108
2679056,343,108
2679067,313,108
2679072,338,108
2679087,335,108
2679097,318,108
2679106,348,108
2679117,321,108
2679128,332,108
2679138,342,108
2679148,317,108
2679155,348,108
2679169,335,108
2679172,331,108
2679189,355,108
2679200,324,108
2679206,354,108
2679220,358,108
2679230,336,108
2679238,365,108
2679251,333,108
2679255,334,108
2679271,342,108
2679281,314,108
2679288,345,108
2679288,328,108
2679313,326,108
2679321,350,108
2679333,310,108
2679343,394,108
2679354,642,110
2679363,659,110
2679372,611,110
2679384,215,110
2679395,299,110
2679404,341,110
2679415,300,110
2679424,329,110
2679436,316,110
2679439,312,110
2679455,339,110
2679467,310,110
2679472,336,110
2679487,344,110
2679497,330,110
2679505,366,110
2679518,344,110
2679526,355,110
2679538,371,110
2679538,344,110
2679555,375,110
2679569,365,110
2679580,365,110
2679588,401,110
2679600,382,110
2679610,418,110
2679620,436,110
2679631,430,110
2679638,473,110
2679651,454,110
2679661,460,110
2679672,457,110
2679682,391,110
2679688,382,110
2679703,336,110
2679713,305,110
2679722,317,110
2679733,281,110
2679738,295,110
2679754,297,110
2679764,274,110
2679773,304,110
2679784,279,110
2679788,285,110
2679805,304,110
2679816,277,110
2679826,307,110
2679826,297,110
2679839,288,110
2679855,315,110
2679867,283,110
2679872,301,110
2679888,306,110
2679898,282,110
2679906,315,110
2679918,291,110
2679926,296,110
2679939,314,110
2679939,283,110
2679955,310,110
2679969,298,110
2679980,285,110
2679989,316,110
2680000,284,110
2680011,303,110
2680021,309,110
2680031,286,110
2680038,319,110
2680052,298,110
2680062,301,110
2680072,320,110
2680083,290,110
2680089,318,110
2680089,310,110
2680113,296,110
2680122,325,110
2680126,295,110
2680141,311,110
2680154,318,110
2680165,293,110
2680172,324,110
2680185,303,110
2680195,306,110
2680205,327,110
2680216,295,110
2680225,324,110
2680237,314,110
2680246,301,110
2680255,333,110
2680267,304,110
2680278,320,110
2680288,327,110
2680299,302,110
2680306,335,110
2680319,314,110
2680329,317,110
2680340,340,110
2680340,307,110
2680356,335,110
2680370,336,110
2680372,328,110
2680389,357,110
2680401,325,110
2680405,333,110
2680421,335,110
2680431,307,110
2680438,337,110
2680452,316,110
2680463,317,110
2680472,339,110
2680483,308,110
2680488,320,110
2680503,378,110
2680514,605,109
2680524,659,109
2680535,583,109
2680544,214,109
2680555,302,109
2680564,299,109
2680572,313,109
2680586,295,109
2680596,295,109
2680604,317,109
2680616,289,109
2680622,317,109
2680637,318,109
2680647,307,109
2680655,343,109
2680668,319,109
2680679,333,109
2680688,345,109
2680698,320,109
2680705,354,109
2680705,338,109
2680727,338,109
2680738,368,109
2680749,346,109
2680755,381,109
2680763,392,109
2680779,389,109
2680789,433,109
2680800,416,109
2680805,435,109
2680822,448,109
2680831,410,109
2680839,415,109
2680853,361,109
2680854,328,109
2680873,329,109
2680882,280,109
2680892,295,109
2680903,289,109
2680914,269,109
2680922,301,109
2680934,272,109
2680939,282,109
2680954,296,109
2680965,267,109
2680975,299,109
2680975,283,109
2680989,278,109
2681006,305,109
2681017,272,109
2681026,296,109
2681037,295,109
2681048,277,109
2681055,309,109
2681068,282,109
2681077,290,109
2681088,304,109
2681099,275,109
2681105,303,109
2681119,290,109
2681129,281,109
2681138,307,109
2681150,278,109
2681160,302,109
2681171,303,109
2681181,281,109
2681189,315,109
2681201,291,109
2681211,301,109
2681221,315,109
2681232,286,109
2681239,315,109
2681239,301,109
2681255,292,109
2681272,318,109
2681272,287,109
2681289,308,109
2681305,309,109
2681305,288,109
2681322,322,109
2681328,297,109
2681345,304,109
2681355,321,109
2681366,292,109
2681372,323,109
2681386,308,109
2681388,299,109
2681405,326,109
2681417,296,109
2681427,318,109
2681438,322,109
2681448,299,109
2681455,332,109
2681468,310,109
2681472,315,109
2681488,333,109
2681500,304,109
2681505,337,109
2681520,324,109
2681530,316,109
2681538,350,109
2681550,328,109
2681561,346,109
2681571,346,109
2681581,322,109
2681588,346,109
2681602,320,109
2681612,322,109
2681622,342,109
2681633,310,109
2681638,340,109
2681654,330,109
2681663,306,109
2681673,378,109
2681673,580,105
2681689,659,105
2681704,647,105
2681714,213,105
2681721,298,105
2681735,319,105
2681745,309,105
2681755,327,105
2681766,298,105
2681772,328,105
2681786,320,105
2681797,310,105
2681805,343,105
2681817,319,105
2681827,342,105
2681838,352,105
2681848,331,105
2681855,366,105
2681869,346,105
2681879,350,105
2681889,372,105
2681899,348,105
2681905,381,105
2681920,380,105
2681930,380,105
2681939,420,105
2681951,405,105
2681961,436,105
2681971,454,105
2681981,436,105
2681989,469,105
2681989,439,105
2682013,415,105
2682023,402,105
2682028,338,105
2682038,334,105
2682054,312,105
2682063,290,105
2682072,311,105
2682084,279,105
2682088,294,105
2682104,304,105
2682115,278,105
2682122,311,105
2682135,295,105
2682146,294,105
2682155,318,105
2682166,290,105
2682176,317,105
2682176,315,105
2682196,302,105
2682206,331,105
2682214,304,105
2682224,320,105
2682238,330,105
2682249,305,105
2682255,336,105
2682269,317,105
2682279,316,105
2682288,337,105
2682300,307,105
2682305,333,105
2682320,327,105
2682330,314,105
2682338,345,105
2682351,322,105
2682361,337,105
2682371,347,105
2682383,321,105
2682388,350,105
2682403,330,105
2682413,327,105
2682422,349,105
2682433,318,105
2682443,339,105
2682454,336,105
2682465,320,105
2682472,349,105
2682484,324,105
2682495,336,105
2682505,348,105
2682516,324,105
2682522,353,105
2682536,333,105
2682546,337,105
2682554,366,105
2682567,338,105
2682572,359,105
2682572,352,105
2682598,327,105
2682605,355,105
2682619,325,105
2682622,336,105
2682638,350,105
2682649,323,105
2682656,353,105
2682669,326,105
2682679,348,105
2682688,576,109
2682700,659,109
2682711,657,109
2682720,280,109
2682730,258,109
2682740,349,109
2682748,312,109
2682756,317,109
2682772,331,109
2682782,304,109
2682793,334,109
2682803,321,109
2682813,319,109
2682824,348,109
2682830,322,109
2682844,347,109
2682847,350,109
2682864,332,109
2682873,364,109
2682879,338,109
2682895,350,109
2682906,369,109
2682915,348,109
2682926,385,109
2682936,380,109
2682946,388,109
2682957,430,109
2682963,412,109
2682978,445,109
2682987,453,109
2682996,434,109
2683008,456,109
2683019,402,109
2683028,370,109
2683039,352,109
2683046,296,109
2683059,308,109
2683065,284,109
2683080,275,109
2683080,297,109
2683097,266,109
2683097,286,109
2683121,283,109
2683129,264,109
2683142,297,109
2683147,272,109
2683147,283,109
2683173,300,109
2683180,272,109
2683192,301,109
2683203,290,109
2683213,282,109
2683224,313,109
2683231,288,109
2683244,313,109
2683255,320,109
2683263,299,109
2683275,331,109
2683279,303,109
2683295,307,109
2683306,320,109
2683314,284,109
2683327,312,109
2683336,298,109
2683346,288,109
2683357,315,109
2683364,284,109
2683364,303,109
2683388,307,109
2683396,284,109
2683409,317,109
2683419,293,109
2683428,296,109
2683431,313,109
2683448,281,109
2683448,308,109
2683464,296,109
2683481,285,109
2683491,315,109
2683497,284,109
2683511,304,109
2683522,309,109
2683530,286,109
2683542,320,109
2683547,298,109
2683563,303,109
2683567,321,109
2683580,290,109
2683580,318,109
2683604,308,109
2683613,297,109
2683624,326,109
2683630,296,109
2683645,316,109
2683654,323,109
2683663,298,109
2683676,332,109
2683680,308,109
2683696,313,109
2683696,343,109
2683714,317,109
2683726,344,109
2683737,332,109
2683747,317,109
2683747,339,109
2683763,307,109
2683779,320,109
2683789,328,109
2683797,303,109
2683809,334,109
2683819,315,109
2683829,305,109
2683831,394,109
2683846,609,109
2683846,659,109
2683863,588,109
2683880,202,109
2683880,314,109
2683897,306,109
2683910,305,109
2683913,312,109
2683930,287,109
2683943,322,109
2683953,302,109
2683963,308,109
2683973,332,109
2683979,306,109
2683994,337,109
2684004,333,109
2684013,319,109
2684024,351,109
2684030,322,109
2684045,342,109
2684055,355,109
2684063,331,109
2684076,371,109
2684087,361,109
2684096,369,109
2684106,402,109
2684113,386,109
2684113,425,109
2684138,428,109
2684147,417,109
2684147,450,109
2684163,410,109
2684179,400,109
2684181,376,109
2684197,319,109
2684197,327,109
2684220,292,109
2684230,278,109
2684240,296,109
2684246,261,109
2684260,284,109
2684271,276,109
2684280,260,109
2684292,293,109
2684297,267,109
2684297,278,109
2684321,292,109
2684330,263,109
2684342,294,109
2684353,276,109
2684363,272,109
2684374,298,109
2684380,267,109
2684395,290,109
2684404,286,109
2684413,270,109
2684425,300,109
2684430,271,109
2684430,284,109
2684456,295,109
2684464,268,109
2684472,299,109
2684480,284,109
2684497,282,109
2684508,307,109
2684513,278,109
2684528,303,109
2684537,304,109
2684546,285,109
2684558,319,109
2684569,295,109
2684579,303,109
2684580,317,109
2684596,290,109
2684610,321,109
2684620,305,109
2684629,300,109
2684641,326,109
2684646,296,109
2684661,320,109
2684668,321,109
2684681,302,109
2684692,336,109
2684702,310,109
2684712,320,109
2684723,336,109
2684731,308,109
2684743,337,109
2684753,323,109
2684763,320,109
2684774,345,109
2684780,315,109
2684794,337,109
2684805,338,109
2684815,319,109
2684825,351,109
2684836,329,109
2684846,339,109
2684856,350,109
2684863,319,109
2684877,357,109
2684880,352,109
2684897,346,109
2684898,369,109
2684917,337,109
2684928,350,109
2684932,344,109
2684946,323,109
2684959,358,109
2684969,328,109
2684979,334,109
2684990,353,109
2684997,312,109
2685010,371,109
2685020,568,106
2685031,659,106
2685041,657,106
2685047,254,106
2685062,280,106
2685068,338,106
2685080,305,106
2685080,331,106
2685098,310,106
2685112,318,106
2685123,337,106
2685132,312,106
2685143,343,106
2685146,335,106
2685163,330,106
2685174,360,106
2685179,336,106
2685194,359,106
2685205,363,106
2685214,343,106
2685225,378,106
2685235,360,106
2685245,370,106
2685257,394,106
2685263,374,106
2685263,413,106
2685280,414,106
2685297,418,106
2685307,459,106
2685318,435,106
2685328,454,106
2685333,454,106
2685347,407,106
2685359,403,106
2685369,347,106
2685379,321,106
2685390,323,106
2685397,282,106
2685410,303,106
2685421,294,106
2685430,279,106
2685441,307,106
2685447,282,106
2685447,299,106
2685472,308,106
2685480,289,106
2685493,323,106
2685503,304,106
2685513,308,106
2685523,329,106
2685533,298,106
2685533,325,106
2685554,318,106
2685563,306,106
2685572,336,106
2685585,310,106
2685595,325,106
2685605,333,106
2685613,307,106
2685626,335,106
2685633,314,106
2685646,313,106
2685657,332,106
2685664,301,106
2685677,328,106
2685688,321,106
2685698,308,106
2685708,340,106
2685718,311,106
2685729,326,106
2685739,335,106
2685746,307,106
2685759,339,106
2685770,320,106
2685780,318,106
2685790,340,106
2685797,310,106
2685811,333,106
2685821,329,106
2685830,315,106
2685841,344,106
2685852,319,106
2685862,333,106
2685872,341,106
2685879,323,106
2685892,362,106
2685903,346,106
2685914,340,106
2685924,362,106
2685934,323,106
2685944,342,106
2685954,335,106
2685963,318,106
2685975,347,106
2685985,322,106
2685996,335,106
2686006,338,106
2686013,326,106
2686027,537,108
2686037,659,108
2686047,658,108
2686047,329,108
2686064,246,108
2686077,344,108
2686079,330,108
2686097,305,108
2686109,335,108
2686118,311,108
2686128,325,108
2686140,338,108
2686146,312,108
2686160,346,108
2686170,334,108
2686179,334,108
2686190,361,108
2686196,331,108
2686211,353,108
2686221,353,108
2686229,338,108
2686242,372,108
2686246,352,108
2686262,370,108
2686272,392,108
2686280,378,108
2686293,422,108
2686304,419,108
2686313,425,108
2686320,459,108
2686334,431,108
2686334,444,108
2686348,418,108
2686364,363,108
2686375,360,108
2686381,307,108
2686396,296,108
2686401,300,108
2686413,266,108
2686422,293,108
2686434,278,108
2686446,270,108
2686457,294,108
2686463,262,108
2686478,284,108
2686488,286,108
2686497,267,108
2686500,302,108
2686518,278,108
2686529,285,108
2686539,302,108
2686546,273,108
2686560,302,108
2686568,288,108
2686580,280,108
2686591,307,108
2686596,278,108
2686611,298,108
2686621,299,108
2686630,278,108
2686634,310,108
2686647,284,108
2686662,292,108
2686673,308,108
2686679,281,108
2686691,310,108
2686697,297,108
2686713,287,108
2686724,316,108
2686734,285,108
2686745,306,108
2686754,310,108
2686763,287,108
2686776,320,108
2686782,296,108
2686796,300,108
2686806,319,108
2686813,288,108
2686827,316,108
2686837,304,108
2686846,296,108
2686858,326,108
2686863,298,108
2686878,316,108
2686889,321,108
2686897,299,108
2686897,332,108
2686920,308,108
2686929,312,108
2686934,331,108
2686947,300,108
2686961,331,108
2686971,320,108
2686980,310,108
2686992,340,108
2687002,310,108
2687011,328,108
2687019,334,108
2687030,310,108
2687034,342,108
2687046,320,108
2687063,320,108
2687069,344,108
2687080,323,108
2687094,354,108
2687104,343,108
2687113,329,108
2687125,352,108
2687134,316,108
2687134,330,108
2687156,336,108
2687163,311,108
2687173,343,108
2687180,322,108
2687196,321,108
2687207,334,108
2687213,414,108
2687228,658,108
2687238,659,108
2687246,449,108
2687258,240,108
2687267,303,108
2687267,321,108
2687280,316,108
2687297,291,108
2687297,322,108
2687320,304,108
2687330,306,108
2687341,333,108
2687347,306,108
2687361,337,108
2687370,333,108
2687380,320,108
2687392,353,108
2687402,324,108
2687412,337,108
2687422,347,108
2687430,326,108
2687443,367,108
2687453,354,108
2687463,358,108
2687474,392,108
2687480,375,108
2687494,413,108
2687498,421,108
2687513,415,108
2687525,451,108
2687536,421,108
2687546,421,108
2687556,404,108
2687563,343,108
2687576,344,108
2687587,305,108
2687597,286,108
2687607,303,108
2687617,269,108
2687617,292,108
2687635,288,108
2687646,270,108
2687659,300,108
2687669,272,108
2687679,285,108
2687689,299,108
2687696,270,108
2687710,302,108
2687720,283,108
2687730,279,108
2687741,305,108
2687746,273,108
2687761,295,108
2687766,294,108
2687780,273,108
2687780,306,108
2687803,280,108
2687813,288,108
2687822,300,108
2687830,272,108
2687843,302,108
2687846,286,108
2687863,280,108
2687874,307,108
2687880,276,108
2687895,300,108
2687905,302,108
2687915,285,108
2687925,318,108
2687935,293,108
2687946,302,108
2687946,317,108
2687963,289,108
2687976,319,108
2687987,305,108
2687997,298,108
2687997,327,108
2688013,296,108
2688028,316,108
2688039,316,108
2688047,298,108
2688047,331,108
2688069,307,108
2688079,319,108
2688090,334,108
2688097,306,108
2688110,337,108
2688120,322,108
2688129,314,108
2688141,341,108
2688147,310,108
2688147,332,108
2688164,333,108
2688180,316,108
2688193,347,108
2688196,324,108
2688213,330,108
2688223,347,108
2688230,319,108
2688244,348,108
2688255,338,108
2688263,327,108
2688275,359,108
2688280,340,108
2688295,360,108
2688305,359,108
2688314,335,108
2688314,360,108
2688336,332,108
2688346,335,108
2688356,349,108
2688363,320,108
2688377,348,108
2688381,337,108
2688397,318,108
2688408,355,108
2688418,501,104
2688429,659,104
2688439,659,104
2688446,309,104
2688459,270,104
2688470,320,104
2688479,314,104
2688489,327,104
2688497,299,104
2688510,328,104
2688521,324,104
2688530,315,104
2688542,344,104
2688547,321,104
2688562,342,104
2688572,352,104
2688580,331,104
2688593,366,104
2688597,346,104
2688613,349,104
2688624,371,104
2688630,346,104
2688645,378,104
2688654,378,104
2688664,376,104
2688664,417,104
2688680,404,104
2688697,434,104
2688698,453,104
2688713,439,104
2688726,476,104
2688737,451,104
2688746,434,104
2688757,420,104
2688764,354,104
2688768,352,104
2688789,326,104
2688796,299,104
2688808,321,104
2688814,292,104
2688829,303,104
2688837,311,104
2688847,289,104
2688860,321,104
2688864,303,104
2688880,305,104
2688890,329,104
2688897,300,104
2688910,327,104
2688921,322,104
2688930,306,104
2688937,335,104
2688952,307,104
2688962,321,104
2688973,330,104
2688980,305,104
2688993,333,104
2689004,314,104
2689013,312,104
2689023,334,104
2689031,302,104
2689037,325,104
2689055,322,104
2689063,306,104
2689076,335,104
2689080,308,104
2689096,321,104
2689106,334,104
2689113,307,104
2689122,338,104
2689130,321,104
2689146,316,104
2689158,340,104
2689165,309,104
2689179,331,104
2689188,329,104
2689196,311,104
2689209,341,104
2689219,314,104
2689229,326,104
2689240,340,104
2689246,314,104
2689260,343,104
2689270,326,104
2689281,322,104
2689281,348,104
2689296,317,104
2689312,341,104
2689321,337,104
2689329,319,104
2689342,351,104
2689347,325,104
2689363,334,104
2689363,349,104
2689381,320,104
2689381,349,104
2689404,341,104
2689414,344,104
2689424,368,104
2689430,336,104
2689445,353,104
2689455,344,104
2689463,321,104
2689476,349,104
2689481,325,104
2689496,332,104
2689506,345,104
2689516,317,104
2689527,335,104
2689537,362,104
2689546,579,105
2689558,659,105
2689564,643,105
2689564,240,105
2689589,292,105
2689598,310,105
2689610,325,105
2689613,296,105
2689630,304,105
2689638,320,105
2689646,293,105
2689661,325,105
2689671,315,105
2689679,312,105
2689691,343,105
2689702,315,105
2689711,339,105
2689723,343,105
2689730,322,105
2689743,354,105
2689752,335,105
2689762,347,105
2689773,368,105
2689780,346,105
2689794,387,105
2689805,389,105
2689814,393,105
2689825,435,105
2689829,418,105
2689845,442,105
2689855,446,105
2689863,413,105
2689876,418,105
2689886,360,105
2689897,332,105
2689907,324,105
2689913,276,105
2689928,295,105
2689936,279,105
2689946,266,105
2689959,292,105
2689964,261,105
2689979,278,105
2689989,284,105
2689997,262,105
2690009,295,105
2690014,275,105
2690030,280,105
2690040,301,105
2690046,272,105
2690061,301,105
2690071,291,105
2690080,278,105
2690092,306,105
2690102,277,105
2690111,292,105
2690123,300,105
2690130,276,105
2690142,305,105
2690153,282,105
2690163,284,105
2690174,305,105
2690181,274,105
2690181,301,105
2690205,295,105
2690213,281,105
2690225,313,105
2690235,286,105
2690246,303,105
2690256,312,105
2690264,287,105
2690269,319,105
2690280,299,105
2690296,298,105
2690307,320,105
2690313,288,105
2690328,314,105
2690338,307,105
2690346,293,105
2690359,326,105
2690368,300,105
2690379,316,105
2690389,325,105
2690396,299,105
2690410,330,105
2690414,312,105
2690430,311,105
2690440,333,105
2690447,302,105
2690461,329,105
2690472,323,105
2690480,308,105
2690492,340,105
2690502,311,105
2690512,325,105
2690523,336,105
2690530,310,105
2690543,340,105
2690554,321,105
2690563,318,105
2690575,344,105
2690580,313,105
2690580,338,105
2690605,335,105
2690614,318,105
2690622,349,105
2690630,322,105
2690645,335,105
2690656,345,105
2690663,316,105
2690677,357,105
2690680,346,105
2690697,342,105
2690708,362,105
2690714,326,105
2690728,343,105
2690738,338,105
2690746,317,105
2690759,350,105
2690765,323,105
2690780,334,105
2690790,348,105
2690797,308,105
2690810,375,105
2690820,573,103
2690830,659,103
2690841,656,103
2690847,247,103
2690862,293,103
2690868,341,103
2690880,304,103
2690892,332,103
2690903,306,103
2690912,317,103
2690923,332,103
2690933,306,103
2690944,343,103
2690948,332,103
2690964,330,103
2690974,359,103
2690985,330,103
2690995,352,103
2690996,352,103
2691013,331,103
2691026,367,103
2691030,347,103
2691047,360,103
2691057,385,103
2691063,364,103
2691077,407,103
2691087,407,103
2691097,412,103
2691108,450,103
2691117,425,103
2691117,448,103
2691139,443,103
2691147,399,103
2691159,399,103
2691164,343,103
2691179,322,103
2691191,319,103
2691198,280,103
2691210,303,103
2691214,286,103
2691231,275,103
2691242,301,103
2691247,269,103
2691262,290,103
2691272,293,103
2691280,271,103
2691292,305,103
2691303,283,103
2691313,290,103
2691323,308,103
2691329,277,103
2691344,306,103
2691354,294,103
2691363,284,103
2691374,312,103
2691385,281,103
2691396,302,103
2691405,305,103
2691414,281,103
2691414,313,103
2691432,288,103
2691447,291,103
2691447,309,103
2691463,279,103
2691478,307,103
2691480,297,103
2691496,287,103
2691496,317,103
2691513,289,103
2691529,309,103
2691539,316,103
2691547,291,103
2691560,323,103
2691570,299,103
2691580,302,103
2691591,320,103
2691596,289,103
2691612,316,103
2691618,308,103
2691631,296,103
2691642,327,103
2691652,297,103
2691663,314,103
2691671,321,103
2691680,296,103
2691693,329,103
2691704,307,103
2691713,309,103
2691724,330,103
2691730,298,103
2691745,323,103
2691754,314,103
2691763,300,103
2691776,332,103
2691779,303,103
2691796,318,103
2691806,327,103
2691813,301,103
2691826,335,103
2691831,314,103
2691847,314,103
2691857,336,103
2691863,304,103
2691878,330,103
2691888,326,103
2691896,312,103
2691909,339,103
2691918,317,103
2691918,340,103
2691940,349,103
2691949,320,103
2691949,350,103
2691965,324,103
2691980,317,103
2691981,339,103
2691997,308,103
2692011,330,103
2692022,326,103
2692031,311,103
2692042,333,103
2692047,324,103
2692063,527,99
2692073,659,99
2692080,657,99
2692094,283,99
2692097,256,99
2692113,318,99
2692124,329,99
2692131,296,99
2692145,320,99
2692147,316,99
2692163,302,99
2692175,335,99
2692186,310,99
2692196,327,99
2692206,343,99
2692214,319,99
2692214,355,99
2692237,341,99
2692247,339,99
2692247,364,99
2692264,336,99
2692278,362,99
2692288,367,99
2692297,356,99
2692297,399,99
2692319,384,99
2692329,409,99
2692340,435,99
2692347,419,99
2692361,457,99
2692371,448,99
2692380,438,99
2692391,442,99
2692397,378,99
2692412,366,99
2692422,336,99
2692430,296,99
2692443,314,99
2692453,283,99
2692463,289,99
2692473,301,99
2692480,273,99
2692480,303,99
2692505,289,99
2692514,285,99
2692522,314,99
2692535,287,99
2692545,313,99
2692555,316,99
2692563,296,99
2692576,330,99
2692586,305,99
2692596,313,99
2692596,328,99
2692613,300,99
2692628,331,99
2692638,317,99
2692647,307,99
2692658,334,99
2692668,304,99
2692679,322,99
2692689,324,99
2692697,303,99
2692709,335,99
2692720,313,99
2692730,319,99
2692740,336,99
2692746,309,99
2692761,338,99
2692771,326,99
2692780,316,99
2692792,341,99
2692797,311,99
2692813,329,99
2692822,333,99
2692830,312,99
2692843,343,99
2692853,321,99
2692863,327,99
2692874,344,99
2692879,315,99
2692895,344,99
2692904,334,99
2692913,324,99
2692925,351,99
2692934,321,99
2692945,338,99
2692947,341,99
2692964,318,99
2692974,349,99
2692987,326,99
2692996,328,99
2693007,347,99
2693013,318,99
2693028,346,99
2693032,338,99
2693047,326,99
2693047,352,99
2693069,329,99
2693079,356,99
2693089,360,99
2693097,332,99
2693110,359,99
2693120,330,99
2693130,328,99
2693140,345,99
2693151,312,99
2693161,339,99
2693172,331,99
2693179,320,99
2693192,339,99
2693202,324,99
2693212,516,100
2693223,659,100
2693230,658,100
2693244,317,100
2693254,247,100
2693263,320,100
2693274,330,100
2693284,293,100
2693295,320,100
2693305,314,100
2693313,301,100
2693326,333,100
2693336,306,100
2693346,327,100
2693347,340,100
2693363,318,100
2693377,353,100
2693381,335,100
2693396,337,100
2693407,359,100
2693413,331,100
2693421,360,100
2693430,357,100
2693447,348,100
2693459,388,100
2693464,373,100
2693480,401,100
2693480,425,100
2693497,412,100
2693497,452,100
2693521,436,100
2693530,431,100
2693541,433,100
2693547,368,100
2693547,360,100
2693572,327,100
2693582,291,100
2693592,311,100
2693597,275,100
2693613,285,100
2693619,293,100
2693630,265,100
2693641,297,100
2693645,277,100
2693664,277,100
2693674,301,100
2693684,271,100
2693694,299,100
2693705,298,100
2693716,282,100
2693724,311,100
2693736,283,100
2693746,294,100
2693757,306,100
2693767,278,100
2693773,310,100
2693787,293,100
2693798,290,100
2693807,314,100
2693818,283,100
2693826,306,100
2693839,302,100
2693848,284,100
2693857,316,100
2693869,289,100
2693880,301,100
2693890,315,100
2693900,288,100
2693907,323,100
2693920,308,100
2693930,303,100
2693940,329,100
2693952,298,100
2693957,320,100
2693973,319,100
2693982,298,100
2693990,328,100
2693990,301,100
2694007,312,100
2694023,327,100
2694034,300,100
2694042,331,100
2694042,316,100
2694065,311,100
2694074,337,100
2694074,305,100
2694094,328,100
2694106,328,100
2694115,306,100
2694123,337,100
2694136,311,100
2694147,318,100
2694157,333,100
2694167,305,100
2694177,334,100
2694177,321,100
2694198,314,100
2694207,340,100
2694219,311,100
2694224,330,100
2694224,331,100
2694250,310,100
2694257,341,100
2694270,316,100
2694281,332,100
2694290,355,100
2694300,320,100
2694306,347,100
2694321,328,100
2694324,311,100
2694341,337,100
2694352,306,100
2694358,324,100
2694372,325,100
2694382,302,100
2694390,332,100
2694403,297,100
2694414,388,100
2694424,656,100
2694434,659,100
2694442,501,100
2694455,200,100
2694465,283,100
2694474,322,100
2694477,281,100
2694491,298,100
2694506,303,100
2694516,282,100
2694524,316,100
2694524,298,100
2694547,308,100
2694557,330,100
2694567,306,100
2694574,340,100
2694574,332,100
2694598,321,100
2694607,350,100
2694617,323,100
2694629,342,100
2694639,350,100
2694650,333,100
2694657,375,100
2694670,365,100
2694680,383,100
2694690,417,100
2694701,400,100
2694707,438,100
2694722,436,100
2694732,426,100
2694742,448,100
2694752,390,100
2694763,371,100
2694772,347,100
2694784,299,100
2694790,314,100
2694804,283,100
2694814,276,100
2694823,295,100
2694834,265,100
2694842,292,100
2694855,288,100
2694865,272,100
2694873,304,100
2694885,276,100
2694896,293,100
2694907,305,100
2694917,280,100
2694924,313,100
2694924,296,100
2694942,296,100
2694957,316,100
2694966,286,100
2694974,314,100
2694974,307,100
2694999,291,100
2695007,320,100
2695020,292,100
2695024,305,100
2695040,312,100
2695050,287,100
2695057,317,100
2695063,301,100
2695072,302,100
2695088,328,100
2695088,299,100
2695112,323,100
2695122,322,100
2695132,306,100
2695142,336,100
2695150,310,100
2695162,318,100
2695173,331,100
2695184,307,100
2695194,337,100
2695200,319,100
2695214,316,100
2695218,341,100
2695234,313,100
2695245,338,100
2695250,334,100
2695265,320,100
2695276,351,100
2695283,325,100
2695296,337,100
2695307,350,100
2695317,325,100
2695327,356,100
2695333,338,100
2695348,336,100
2695349,364,100
2695368,335,100
2695376,356,100
2695384,353,100
2695399,344,100
2695401,382,100
2695417,358,100
2695430,367,100
2695433,376,100
2695450,339,100
2695460,365,100
2695467,349,100
2695481,342,100
2695492,366,100
2695500,336,100
2695512,358,100
2695520,345,100
2695532,365,100
2695543,621,100
2695550,659,100
2695563,651,100
2695568,269,100
2695583,277,100
2695594,353,100
2695600,328,100
2695615,318,100
2695624,345,100
2695633,317,100
2695646,340,100
2695650,341,100
2695666,325,100
2695667,361,100
2695684,340,100
2695693,352,100
2695707,370,100
2695716,342,100
2695728,373,100
2695734,362,100
2695743,355,100
2695758,384,100
2695767,362,100
2695779,387,100
2695784,401,100
2695800,393,100
2695810,440,100
2695817,431,100
2695830,448,100
2695833,471,100
2695851,445,100
2695861,461,100
2695867,422,100
2695883,374,100
2695884,365,100
2695900,309,100
2695912,310,100
2695923,304,100
2695932,278,100
2695943,308,100
2695950,284,100
2695965,287,100
2695967,304,100
2695984,275,100
2695995,304,100
2696000,296,100
2696014,286,100
2696024,317,100
2696033,290,100
2696046,306,100
2696051,311,100
2696066,286,100
2696077,316,100
2696084,292,100
2696097,294,100
2696100,316,100
2696118,286,100
2696128,313,100
2696134,306,100
2696148,291,100
2696158,320,100
2696166,292,100
2696173,307,100
2696182,311,100
2696198,286,100
2696198,319,100
2696221,298,100
2696226,300,100
2696240,323,100
2696251,293,100
2696259,320,100
2696272,313,100
2696282,298,100
2696292,327,100
2696302,297,100
2696313,313,100
2696323,320,100
2696325,296,100
2696341,326,100
2696354,307,100
2696359,308,100
2696374,330,100
2696376,299,100
2696392,324,100
2696404,319,100
2696415,304,100
2696425,333,100
2696436,304,100
2696444,317,100
2696457,326,100
2696467,300,100
2696476,333,100
2696487,314,100
2696497,314,100
2696507,337,100
2696518,305,100
2696526,329,100
2696526,324,100
2696548,308,100
2696559,341,100
2696570,312,100
2696575,324,100
2696590,347,100
2696600,326,100
2696608,355,100
2696620,331,100
2696625,324,100
2696640,341,100
2696644,308,100
2696659,330,100
2696672,326,100
2696676,307,100
2696692,340,100
2696703,313,100
2696709,311,100
2696722,379,100
2696725,587,101
2696744,659,101
2696754,615,101
2696760,208,101
2696775,305,101
2696785,304,101
2696792,310,101
2696805,307,101
2696814,288,101
2696825,320,101
2696836,295,101
2696844,309,101
2696844,328,101
2696860,303,101
2696875,339,101
2696887,326,101
2696893,322,101
2696908,350,101
2696915,321,101
2696926,344,101
2696938,346,101
2696944,330,101
2696958,369,101
2696970,352,101
2696976,371,101
2696976,400,101
2696991,385,101
2697009,429,101
2697021,425,101
2697025,426,101
2697041,452,101
2697051,411,101
2697059,406,101
2697072,373,101
2697075,319,101
2697092,328,101
2697103,286,101
2697109,284,101
2697124,296,101
2697133,263,101
2697144,292,101
2697154,279,101
2697159,268,101
2697175,297,101
2697185,266,101
2697192,286,101
2697192,293,101
2697209,271,101
2697226,306,101
2697236,281,101
2697247,284,101
2697257,304,101
2697266,273,101
2697275,303,101
2697287,292,101
2697294,284,101
2697308,313,101
2697310,280,101
2697326,300,101
2697326,302,101
2697349,278,101
2697359,309,101
2697369,286,101
2697380,290,101
2697391,312,101
2697393,283,101
2697409,312,101
2697422,304,101
2697427,296,101
2697442,327,101
2697452,297,101
2697459,315,101
2697473,320,101
2697483,295,101
2697491,327,101
2697504,304,101
2697513,305,101
2697513,325,101
2697535,294,101
2697544,323,101
2697544,317,101
2697560,304,101
2697576,337,101
2697586,307,101
2697592,323,101
2697606,329,101
2697613,304,101
2697625,335,101
2697637,313,101
2697644,312,101
2697658,334,101
2697658,300,101
2697677,327,101
2697688,321,101
2697692,307,101
2697708,338,101
2697719,310,101
2697726,324,101
2697740,333,101
2697750,306,101
2697759,336,101
2697761,314,101
2697781,313,101
2697791,336,101
2697802,305,101
2697809,329,101
2697821,325,101
2697832,309,101
2697842,340,101
2697853,313,101
2697859,326,101
2697866,335,101
2697884,319,101
2697892,357,101
2697892,338,101
2697908,332,101
2697924,352,101
2697935,315,101
2697945,337,101
2697955,330,101
2697965,313,101
2697975,344,101
2697986,316,101
2697992,330,101
2698007,331,101
2698016,340,101
2698026,585,100
2698037,659,100
2698045,651,100
2698045,261,100
2698068,262,100
2698076,337,100
2698088,319,100
2698099,296,100
2698108,330,100
2698120,306,100
2698130,320,100
2698139,333,100
2698145,309,100
2698160,344,100
2698170,333,100
2698181,331,100
2698191,360,100
2698201,333,100
2698208,353,100
2698222,354,100
2698226,336,100
2698243,372,100
2698253,352,100
2698259,368,100
2698274,396,100
2698284,378,100
2698292,423,100
2698304,423,100
2698314,429,100
2698325,463,100
2698335,437,100
2698345,456,100
2698356,431,100
2698362,376,100
2698376,376,100
2698387,321,100
2698392,306,100
2698392,310,100
2698417,275,100
2698425,298,100
2698438,283,100
2698445,275,100
2698458,304,100
2698469,274,100
2698475,292,100
2698488,297,100
2698493,277,100
2698509,311,100
2698519,291,100
2698525,297,100
2698540,314,100
2698550,284,100
2698559,313,100
2698565,305,100
2698582,295,100
2698592,324,100
2698593,293,100
2698609,311,100
2698623,313,100
2698633,289,100
2698642,319,100
2698653,295,100
2698659,301,100
2698666,321,100
2698684,291,100
2698692,321,100
2698692,311,100
2698715,300,100
2698725,334,100
2698736,306,100
2698746,322,100
2698756,329,100
2698766,305,100
2698775,336,100
2698786,316,100
2698792,319,100
2698807,339,100
2698809,311,100
2698825,338,100
2698839,330,100
2698846,320,100
2698858,351,100
2698869,324,100
2698876,340,100
2698889,349,100
2698900,326,100
2698908,356,100
2698920,337,100
2698931,335,100
2698941,359,100
2698951,330,100
2698959,356,100
2698972,352,100
2698982,337,100
2698992,364,100
2699001,342,100
2699009,365,100
2699009,379,100
2699033,348,100
2699042,378,100
2699046,350,100
2699058,342,100
2699074,361,100
2699084,330,100
2699092,354,100
2699105,347,100
2699115,332,100
2699125,356,100
2699136,328,100
2699142,483,101
2699156,659,101
2699166,659,101
2699175,404,101
2699188,237,101
2699192,323,101
2699208,346,101
2699218,306,101
2699225,330,101
2699239,328,101
2699246,311,101
2699258,343,101
2699269,319,101
2699275,334,101
2699290,351,101
2699300,327,101
2699309,361,101
2699321,348,101
2699331,344,101
2699341,369,101
2699351,339,101
2699359,366,101
2699359,369,101
2699382,356,101
2699392,395,101
2699393,382,101
2699409,405,101
2699423,435,101
2699425,422,101
2699441,463,101
2699454,454,101
2699464,443,101
2699475,446,101
2699485,379,101
2699492,361,101
2699506,331,101
2699515,285,101
2699526,304,101
2699536,272,101
2699543,279,101
2699547,294,101
2699567,265,101
2699575,293,101
2699588,279,101
2699598,274,101
2699608,303,101
2699619,274,101
2699625,297,101
2699639,300,101
2699649,280,101
2699658,311,101
2699670,286,101
2699675,291,101
2699690,309,101
