Timestamp,ECGValue,BPM
2365070,302,112
2365087,288,112
2365096,278,112
2365107,311,112
2365112,273,112
2365128,295,112
2365128,298,112
2365145,270,112
2365159,309,112
2365168,285,112
2365178,293,112
2365189,323,112
2365196,290,112
2365210,324,112
2365220,314,112
2365228,298,112
2365228,333,112
2365251,294,112
2365261,313,112
2365272,317,112
2365278,283,112
2365292,317,112
2365296,285,112
2365312,288,112
2365322,315,112
2365333,279,112
2365343,317,112
2365353,312,112
2365361,299,112
2365373,340,112
2365384,312,112
2365394,340,112
2365404,350,112
2365411,313,112
2365425,348,112
2365428,316,112
2365444,304,112
2365444,322,112
2365462,277,112
2365477,308,112
2365487,305,112
2365497,290,112
2365497,335,112
2365512,308,112
2365528,331,112
2365539,348,112
2365544,314,112
2365558,352,112
2365569,325,112
2365578,313,112
2365590,346,112
2365600,313,112
2365611,343,112
2365620,338,112
2365627,312,112
2365641,340,112
2365645,303,112
2365662,310,112
2365672,325,112
2365678,286,112
2365692,321,112
2365702,303,112
2365711,286,112
2365723,357,112
2365733,540,114
2365743,659,114
2365754,648,114
2365764,198,114
2365774,291,114
2365778,304,114
2365794,301,114
2365805,315,114
2365812,279,114
2365826,318,114
2365828,303,114
2365845,298,114
2365856,337,114
2365861,303,114
2365877,333,114
2365878,337,114
2365897,314,114
2365908,357,114
2365912,328,114
2365928,338,114
2365938,364,114
2365944,335,114
2365959,380,114
2365969,373,114
2365978,375,114
2365990,422,114
2366000,399,114
2366010,431,114
2366013,441,114
2366028,414,114
2366041,437,114
2366052,373,114
2366061,345,114
2366072,340,114
2366078,283,114
2366093,309,114
2366103,290,114
2366112,274,114
2366124,310,114
2366129,270,114
2366129,291,114
2366154,296,114
2366162,267,114
2366175,311,114
2366185,281,114
2366195,287,114
2366205,315,114
2366212,278,114
2366226,313,114
2366236,304,114
2366244,288,114
2366257,325,114
2366268,286,114
2366277,306,114
2366287,317,114
2366297,288,114
2366308,326,114
2366319,300,114
2366328,301,114
2366339,325,114
2366345,285,114
2366360,315,114
2366370,305,114
2366379,287,114
2366390,324,114
2366401,290,114
2366411,307,114
2366421,322,114
2366429,290,114
2366429,331,114
2366446,309,114
2366462,308,114
2366472,337,114
2366478,299,114
2366478,328,114
2366503,320,114
2366511,297,114
2366520,334,114
2366527,300,114
2366544,316,114
2366555,334,114
2366561,299,114
2366575,340,114
2366585,320,114
2366595,315,114
2366598,345,114
2366611,304,114
2366626,332,114
2366628,329,114
2366644,304,114
2366657,343,114
2366668,309,114
2366677,321,114
2366688,339,114
2366698,301,114
2366708,339,114
2366719,325,114
2366728,326,114
2366739,362,114
2366745,318,114
2366760,343,114
2366771,334,114
2366778,300,114
2366778,334,114
2366798,302,114
2366811,309,114
2366821,326,114
2366828,292,114
2366842,324,114
2366844,302,114
2366862,427,113
2366872,659,113
2366878,659,113
2366893,372,113
2366905,220,113
2366911,286,113
2366924,316,113
2366934,274,113
2366945,283,113
2366954,304,113
2366961,268,113
2366975,308,113
2366979,298,113
2366995,291,113
2367006,330,113
2367012,295,113
2367027,323,113
2367033,331,113
2367044,302,113
2367058,343,113
2367067,316,113
2367078,328,113
2367089,359,113
2367098,332,113
2367098,380,113
2367113,385,113
2367129,387,113
2367140,436,113
2367145,408,113
2367145,431,113
2367162,433,113
2367178,374,113
2367178,381,113
2367201,323,113
2367211,300,113
2367222,310,113
2367229,265,113
2367229,296,113
2367244,290,113
2367262,274,113
2367273,310,113
2367278,274,113
2367294,293,113
2367304,304,113
2367311,272,113
2367324,314,113
2367335,293,113
2367345,296,113
2367355,327,113
2367363,289,113
2367376,322,113
2367378,318,113
2367395,298,113
2367407,336,113
2367414,303,113
2367427,318,113
2367437,331,113
2367445,296,113
2367458,337,113
2367468,313,113
2367478,307,113
2367488,335,113
2367499,298,113
2367499,326,113
2367512,323,113
2367528,300,113
2367540,342,113
2367545,310,113
2367560,325,113
2367569,341,113
2367579,307,113
2367591,345,113
2367601,324,113
2367611,315,113
2367622,349,113
2367628,312,113
2367642,336,113
2367653,336,113
2367662,310,113
2367667,348,113
2367678,318,113
2367694,330,113
2367699,348,113
2367712,312,113
2367722,347,113
2367729,331,113
2367744,322,113
2367756,353,113
2367762,316,113
2367776,342,113
2367778,342,113
2367795,316,113
2367807,357,113
2367818,326,113
2367828,337,113
2367838,366,113
2367845,332,113
2367858,367,113
2367864,351,113
2367878,330,113
2367878,364,113
2367896,323,113
2367900,348,113
2367912,354,113
2367928,324,113
2367940,367,113
2367945,328,113
2367961,343,113
2367972,541,98
2367978,659,98
2367992,659,98
2368002,360,98
2368012,245,98
2368019,361,98
2368029,320,98
2368044,334,98
2368045,343,98
2368061,316,98
2368074,358,98
2368084,335,98
2368095,338,98
2368105,370,98
2368111,336,98
2368125,372,98
2368135,363,98
2368144,351,98
2368156,389,98
2368164,354,98
2368176,375,98
2368178,392,98
2368195,367,98
2368200,416,98
2368218,405,98
2368228,417,98
2368238,460,98
2368245,435,98
2368259,473,98
2368269,466,98
2368278,433,106
2368289,439,106
2368295,366,106
2368300,351,106
2368320,339,106
2368328,292,106
2368341,324,106
2368352,302,106
2368362,298,106
2368371,329,106
2368378,289,106
2368392,315,106
2368403,309,106
2368411,288,106
2368423,328,106
2368428,296,106
2368444,311,106
2368454,332,106
2368463,299,106
2368463,336,106
2368478,314,106
2368494,308,106
2368506,338,106
2368515,297,106
2368525,324,106
2368529,325,106
2368545,302,106
2368557,340,106
2368562,306,106
2368576,317,106
2368586,333,106
2368595,295,106
2368601,330,106
2368611,312,106
2368628,301,106
2368639,336,106
2368645,296,106
2368659,324,106
2368669,326,106
2368679,300,106
2368679,341,106
2368700,311,106
2368710,319,106
2368721,339,106
2368729,299,106
2368729,333,106
2368752,317,106
2368761,304,106
2368772,337,106
2368778,299,106
2368793,321,106
2368803,327,106
2368811,297,106
2368823,337,106
2368829,310,106
2368829,313,106
2368855,334,106
2368862,296,106
2368871,330,106
2368878,317,106
2368895,300,106
2368901,336,106
2368911,299,106
2368925,321,106
2368929,330,106
2368944,296,106
2368957,337,106
2368961,310,106
2368977,314,106
2368978,339,106
2368995,298,106
2369008,329,106
2369011,328,106
2369029,315,106
2369039,349,106
2369044,311,106
2369044,325,106
2369062,328,106
2369078,293,106
2369090,332,106
2369100,309,106
2369110,310,106
2369121,340,106
2369128,303,106
2369128,327,106
2369144,391,106
2369162,624,96
2369173,660,96
2369178,599,96
2369193,220,96
2369203,314,96
2369211,301,96
2369224,324,96
2369234,300,96
2369244,293,96
2369254,326,96
2369262,288,96
2369275,321,96
2369285,320,96
2369295,300,96
2369306,343,96
2369311,312,96
2369326,327,96
2369337,345,96
2369344,308,96
2369357,345,96
2369367,333,96
2369377,334,96
2369388,377,96
2369394,346,96
2369408,388,96
2369419,402,96
2369428,391,96
2369439,441,96
2369445,414,96
2369460,424,96
2369471,426,105
2369478,356,105
2369478,357,105
2369494,312,105
2369511,282,105
2369522,302,105
2369529,261,105
2369529,287,105
2369553,290,105
2369562,262,105
2369573,302,105
2369578,268,105
2369578,274,105
2369602,296,105
2369611,257,105
2369625,293,105
2369635,280,105
2369644,270,105
2369655,308,105
2369661,272,105
2369675,295,105
2369679,301,105
2369694,271,105
2369706,311,105
2369711,282,105
2369727,287,105
2369737,313,105
2369746,274,105
2369746,308,105
2369762,299,105
2369778,281,105
2369778,318,105
2369795,280,105
2369809,303,105
2369819,315,105
2369829,284,105
2369829,322,105
2369844,298,105
2369860,301,105
2369870,328,105
2369878,293,105
2369891,326,105
2369895,317,105
2369911,298,105
2369922,336,105
2369928,300,105
2369942,316,105
2369952,328,105
2369961,295,105
2369973,336,105
2369984,315,105
2369994,314,105
2370004,344,105
2370014,306,105
2370024,336,105
2370035,328,105
2370045,304,105
2370056,342,105
2370062,306,105
2370075,322,105
2370085,336,105
2370095,301,105
2370106,340,105
2370112,318,105
2370127,314,105
2370138,345,105
2370144,304,105
2370158,333,105
2370161,331,105
2370179,306,105
2370188,341,105
2370195,305,105
2370209,322,105
2370219,346,105
2370229,311,105
2370229,342,105
2370245,319,105
2370260,302,105
2370263,331,105
2370278,291,105
2370291,317,105
2370302,314,105
2370312,289,105
2370318,331,105
2370327,287,105
2370342,332,105
2370345,572,95
2370361,659,95
2370374,642,95
2370383,212,95
2370394,248,95
2370404,328,95
2370412,274,95
2370416,298,95
2370428,301,95
2370445,273,95
2370456,315,95
2370462,291,95
2370470,299,95
2370479,328,95
2370494,296,95
2370507,334,95
2370512,327,95
2370528,313,95
2370538,353,95
2370545,318,95
2370545,341,95
2370569,355,95
2370579,333,95
2370579,384,95
2370595,371,95
2370610,390,95
2370612,434,95
2370628,407,95
2370628,452,95
2370645,444,95
2370660,417,100
2370670,423,100
2370678,351,100
2370691,340,100
2370702,326,100
2370711,282,100
2370723,314,100
2370728,284,100
2370728,284,100
2370745,313,100
2370762,275,100
2370773,303,100
2370784,297,100
2370794,276,100
2370805,317,100
2370811,283,100
2370826,305,100
2370835,320,100
2370845,290,100
2370856,331,100
2370866,310,100
2370876,308,100
2370886,337,100
2370895,300,100
2370907,328,100
2370917,326,100
2370927,305,100
2370939,341,100
2370944,303,100
2370959,312,100
2370969,329,100
2370978,295,100
2370989,333,100
2370995,317,100
2371009,311,100
2371020,341,100
2371028,308,100
2371040,333,100
2371044,332,100
2371061,310,100
2371072,351,100
2371078,320,100
2371092,331,100
2371096,350,100
2371111,313,100
2371123,348,100
2371129,330,100
2371143,323,100
2371154,355,100
2371161,317,100
2371175,341,100
2371178,344,100
2371194,318,100
2371205,356,100
2371212,328,100
2371225,336,100
2371236,357,100
2371245,321,100
2371256,352,100
2371267,345,100
2371277,340,100
2371287,377,100
2371295,338,100
2371303,360,100
2371314,356,100
2371328,323,100
2371332,358,100
2371344,331,100
2371359,334,100
2371361,359,100
2371379,322,100
2371390,351,100
2371395,347,100
2371411,497,93
2371411,659,93
2371429,659,93
2371441,351,93
2371451,268,93
2371461,319,93
2371472,355,93
2371477,324,93
2371493,328,93
2371502,356,93
2371512,322,93
2371517,355,93
2371529,350,93
2371529,334,93
2371554,378,93
2371561,347,93
2371575,368,93
2371584,380,93
2371594,349,93
2371605,392,93
2371611,373,93
2371626,375,93
2371636,410,93
2371645,382,93
2371656,425,93
2371664,435,93
2371664,431,93
2371687,480,93
2371695,454,93
2371708,469,93
2371719,474,100
2371728,409,100
2371738,408,100
2371746,355,100
2371746,322,100
2371762,337,100
2371779,294,100
2371791,319,100
2371800,317,100
2371811,292,100
2371821,330,100
2371828,296,100
2371841,304,100
2371852,324,100
2371861,290,100
2371872,327,100
2371878,313,100
2371893,307,100
2371903,341,100
2371911,302,100
2371924,327,100
2371934,328,100
2371944,298,100
2371953,336,100
2371962,306,100
2371974,315,100
2371985,337,100
2371994,299,100
2372005,335,100
2372011,317,100
2372026,306,100
2372036,337,100
2372045,298,100
2372057,320,100
2372067,323,100
2372077,295,100
2372088,336,100
2372095,306,100
2372108,314,100
2372119,337,100
2372129,300,100
2372129,334,100
2372145,322,100
2372157,304,100
2372170,338,100
2372179,301,100
2372190,323,100
2372201,332,100
2372210,300,100
2372217,340,100
2372231,313,100
2372242,315,100
2372245,340,100
2372261,301,100
2372272,333,100
2372278,326,100
2372293,306,100
2372295,341,100
2372311,309,100
2372324,334,100
2372334,348,100
2372344,312,100
2372345,350,100
2372361,318,100
2372373,309,100
2372379,335,100
2372394,297,100
2372406,329,100
2372412,322,100
2372427,300,100
2372437,333,100
2372444,295,100
2372458,443,93
2372465,659,93
2372478,659,93
2372488,392,93
2372495,212,93
2372509,300,93
2372519,324,93
2372528,276,93
2372539,306,93
2372545,302,93
2372560,281,93
2372569,322,93
2372578,291,93
2372591,306,93
2372595,329,93
2372612,295,93
2372622,332,93
2372629,317,93
2372642,311,93
2372652,349,93
2372662,312,93
2372673,345,93
2372679,357,93
2372679,339,93
2372704,389,93
2372711,370,93
2372721,393,93
2372735,423,93
2372744,395,93
2372745,437,93
2372761,419,101
2372776,388,101
2372779,385,101
2372795,314,101
2372807,313,101
2372812,299,101
2372827,262,101
2372827,299,101
2372844,268,101
2372857,273,101
2372868,296,101
2372878,258,101
2372879,294,101
2372895,281,101
2372909,265,101
2372919,303,101
2372928,265,101
2372940,288,101
2372950,298,101
2372960,268,101
2372971,309,101
2372978,280,101
2372978,280,101
2373001,308,101
2373011,268,101
2373021,302,101
2373028,294,101
2373042,279,101
2373053,316,101
2373062,280,101
2373073,297,101
2373082,307,101
2373094,274,101
2373104,314,101
2373112,291,101
2373125,289,101
2373135,317,101
2373145,276,101
2373155,311,101
2373161,307,101
2373176,288,101
2373178,329,101
2373195,294,101
2373207,310,101
2373217,324,101
2373227,289,101
2373237,326,101
2373244,304,101
2373258,300,101
2373268,331,101
2373278,294,101
2373289,323,101
2373299,323,101
2373310,300,101
2373311,341,101
2373328,310,101
2373328,322,101
2373345,338,101
2373361,301,101
2373371,338,101
2373378,318,101
2373391,310,101
2373395,345,101
2373412,306,101
2373421,335,101
2373428,338,101
2373443,313,101
2373453,354,101
2373461,327,101
2373473,345,101
2373478,368,101
2373494,328,101
2373504,363,101
2373511,343,101
2373525,321,101
2373535,353,101
2373545,313,101
2373557,338,101
2373562,342,101
2373577,314,101
2373586,351,101
2373595,313,101
2373607,432,106
2373617,659,106
2373628,659,106
2373638,484,106
2373645,225,106
2373645,305,106
2373662,343,106
2373678,293,106
2373689,314,106
2373695,324,106
2373710,294,106
2373719,337,106
2373727,314,106
2373727,320,106
2373751,352,106
2373761,315,106
2373772,348,106
2373779,340,106
2373792,325,106
2373802,364,106
2373812,330,106
2373823,354,106
2373827,374,106
2373843,349,106
2373853,399,106
2373864,387,106
2373874,400,106
2373878,438,106
2373894,407,106
2373905,440,106
2373912,431,106
2373925,391,106
2373935,394,106
2373944,324,106
2373956,312,106
2373966,305,106
2373977,259,106
2373987,291,106
2373994,269,106
2374008,260,106
2374018,289,106
2374028,248,106
2374038,277,106
2374045,273,106
2374059,249,106
2374069,290,106
2374079,259,106
2374079,274,106
2374096,293,106
2374111,258,106
2374121,297,106
2374129,278,106
2374141,268,106
2374151,301,106
2374161,264,106
2374171,289,106
2374178,292,106
2374192,265,106
2374195,304,106
2374211,273,106
2374223,281,106
2374228,303,106
2374244,265,106
2374254,302,106
2374262,290,106
2374269,282,106
2374285,319,106
2374294,283,106
2374305,307,106
2374311,313,106
2374325,286,106
2374335,325,106
2374344,299,106
2374356,304,106
2374367,327,106
2374377,290,106
2374387,323,106
2374394,314,106
2374408,298,106
2374418,334,106
2374428,301,106
2374439,326,106
2374445,332,106
2374459,304,106
2374469,346,106
2374478,320,106
2374489,324,106
2374495,350,106
2374510,310,106
2374517,343,106
2374528,337,106
2374528,320,106
2374546,357,106
2374562,323,106
2374572,339,106
2374578,351,106
2374592,320,106
2374594,362,106
2374612,350,106
2374622,349,106
2374634,377,106
2374644,338,106
2374654,359,106
2374662,349,106
2374669,324,106
2374685,364,106
2374695,331,106
2374706,343,106
2374713,357,106
2374725,310,106
2374736,366,106
2374745,549,107
2374757,660,107
2374766,659,107
2374766,280,107
2374788,273,107
2374795,342,107
2374807,306,107
2374818,339,107
2374827,309,107
2374840,322,107
2374845,341,107
2374845,304,107
2374869,346,107
2374878,334,107
2374890,329,107
2374895,366,107
2374906,334,107
2374922,362,107
2374929,365,107
2374929,343,107
2374945,383,107
2374962,358,107
2374973,373,107
2374983,402,107
2374993,375,107
2375003,425,107
2375011,426,107
2375023,424,107
2375034,466,107
2375044,432,107
2375055,444,107
2375064,424,107
2375076,358,107
2375086,362,107
2375095,312,107
2375095,299,107
2375112,314,107
2375117,276,107
2375136,310,107
2375144,300,107
2375157,284,107
2375167,318,107
2375178,285,107
2375178,306,107
2375194,316,107
2375207,290,107
2375212,332,107
2375228,310,107
2375239,314,107
2375245,338,107
2375260,300,107
2375269,331,107
2375278,324,107
2375278,304,107
2375295,343,107
2375311,310,107
2375321,328,107
2375329,341,107
2375329,308,107
2375344,347,107
2375362,323,107
2375373,318,107
2375378,344,107
2375393,305,107
2375404,334,107
2375411,332,107
2375425,312,107
2375429,351,107
2375445,320,107
2375455,333,107
2375461,350,107
2375475,317,107
2375486,353,107
2375495,333,107
2375506,327,107
2375511,358,107
2375527,320,107
2375537,348,107
2375545,348,107
2375545,326,107
2375562,364,107
2375578,335,107
2375589,354,107
2375595,375,107
2375609,335,107
2375612,372,107
2375629,347,107
2375629,333,107
2375644,363,107
2375661,325,107
2375671,352,107
2375678,354,107
2375690,329,107
2375696,359,107
2375711,334,107
2375722,499,111
2375728,659,111
2375743,659,111
2375752,367,111
2375761,246,111
2375773,318,111
2375778,349,111
2375778,304,111
2375795,326,111
2375811,334,111
2375825,306,111
2375835,345,111
2375845,319,111
2375845,326,111
2375861,356,111
2375876,321,111
2375878,358,111
2375894,352,111
2375894,337,111
2375913,373,111
2375927,338,111
2375938,361,111
2375945,380,111
2375959,356,111
2375967,404,111
2375977,394,111
2375988,411,111
2375994,450,111
2376009,421,111
2376020,456,111
2376028,438,111
2376040,388,111
2376051,386,111
2376061,318,111
2376071,308,111
2376078,302,111
2376091,260,111
2376102,296,111
2376111,272,111
2376122,268,111
2376128,298,111
2376128,256,111
2376153,283,111
2376162,280,111
2376174,256,111
2376184,295,111
2376195,263,111
2376204,278,111
2376212,300,111
2376217,265,111
2376234,301,111
2376244,281,111
2376256,272,111
2376266,305,111
2376276,266,111
2376286,293,111
2376294,297,111
2376306,269,111
2376317,307,111
2376327,276,111
2376338,287,111
2376344,308,111
2376358,268,111
2376362,304,111
2376378,288,111
2376390,277,111
2376395,312,111
2376410,274,111
2376420,301,111
2376427,306,111
2376440,279,111
2376445,319,111
2376461,293,111
2376471,298,111
2376478,320,111
2376492,281,111
2376502,315,111
2376511,304,111
2376523,289,111
2376528,327,111
2376543,288,111
2376553,313,111
2376562,321,111
2376574,292,111
2376579,331,111
2376579,304,111
2376595,307,111
2376612,331,111
2376625,293,111
2376636,326,111
2376645,314,111
2376656,294,111
2376662,332,111
2376676,298,111
2376687,318,111
2376695,330,111
2376707,298,111
2376713,339,111
2376727,317,111
2376738,316,111
2376745,343,111
2376759,308,111
2376768,348,111
2376778,342,111
2376789,318,111
2376794,355,111
2376810,314,111
2376820,323,111
2376828,334,111
2376841,300,111
2376845,339,111
2376861,319,111
2376871,317,111
2376878,340,111
2376892,309,111
2376895,504,109
2376911,659,109
2376923,659,109
2376929,359,109
2376929,228,109
2376953,328,109
2376964,334,109
2376974,286,109
2376985,326,109
2376994,311,109
2377005,301,109
2377011,337,109
2377026,305,109
2377036,338,109
2377045,341,109
2377056,318,109
2377064,361,109
2377077,333,109
2377086,344,109
2377095,364,109
2377107,328,109
2377118,370,109
2377128,364,109
2377139,362,109
2377145,409,109
2377159,383,109
2377169,422,109
2377178,438,109
2377190,420,109
2377195,463,109
2377210,426,109
2377213,410,109
2377229,397,109
2377241,326,109
2377245,334,109
2377261,304,109
2377272,278,109
2377278,312,109
2377293,273,109
2377303,295,109
2377311,302,109
2377323,271,109
2377334,309,109
2377343,280,109
2377345,282,109
2377361,310,109
2377375,268,109
2377385,302,109
2377394,295,109
2377405,275,109
2377412,314,109
2377417,278,109
2377428,297,109
2377445,308,109
2377457,275,109
2377467,316,109
2377477,292,109
2377488,287,109
2377495,317,109
2377508,278,109
2377518,308,109
2377528,303,109
2377538,280,109
2377544,320,109
2377559,286,109
2377570,303,109
2377578,321,109
2377591,288,109
2377600,328,109
2377611,308,109
2377615,303,109
2377629,335,109
2377642,297,109
2377652,324,109
2377661,322,109
2377673,297,109
2377678,337,109
2377693,303,109
2377703,315,109
2377711,332,109
2377723,296,109
2377734,336,109
2377744,322,109
2377754,313,109
2377762,347,109
2377762,307,109
2377785,332,109
2377795,332,109
2377795,302,109
2377812,340,109
2377821,308,109
2377836,316,109
2377846,336,109
2377846,298,109
2377867,333,109
2377877,317,109
2377879,304,109
2377895,339,109
2377909,298,109
2377911,322,109
2377928,326,109
2377939,294,109
2377945,336,109
2377945,317,109
2377971,321,109
2377978,340,109
2377978,298,109
2377995,326,109
2378010,308,109
2378022,291,109
2378028,330,109
2378042,293,109
2378053,314,109
2378062,326,109
2378072,290,109
2378078,327,109
2378093,440,106
2378103,658,106
2378112,659,106
2378124,349,106
2378134,229,106
2378145,315,106
2378154,289,106
2378161,319,106
2378175,288,106
2378178,309,106
2378195,325,106
2378207,295,106
2378212,336,106
2378227,320,106
2378237,323,106
2378245,357,106
2378257,322,106
2378268,355,106
2378278,355,106
2378288,335,106
2378294,375,106
2378309,348,106
2378313,369,106
2378327,394,106
2378327,370,106
2378346,423,106
2378361,417,106
2378370,424,106
2378378,463,106
2378391,431,106
2378401,453,106
2378411,433,106
2378422,374,106
2378429,379,106
2378443,319,106
2378453,309,106
2378462,317,106
2378473,276,106
2378483,310,106
2378494,294,106
2378504,284,106
2378513,316,106
2378524,277,106
2378535,302,106
2378545,307,106
2378545,279,106
2378561,321,106
2378576,295,106
2378578,305,106
2378595,330,106
2378595,293,106
2378613,328,106
2378627,316,106
2378638,300,106
2378645,337,106
2378645,302,106
2378668,321,106
2378679,327,106
2378679,297,106
2378694,336,106
2378709,306,106
2378720,305,106
2378728,332,106
2378740,291,106
2378745,323,106
2378745,312,106
2378771,298,106
2378779,336,106
2378779,303,106
2378794,322,106
2378812,330,106
2378823,299,106
2378827,336,106
2378842,311,106
2378853,309,106
2378861,336,106
2378873,299,106
2378884,331,106
2378894,327,106
2378904,305,106
2378914,345,106
2378924,312,106
2378935,329,106
2378945,341,106
2378955,312,106
2378962,351,106
2378975,329,106
2378986,325,106
2378994,357,106
2378994,317,106
2379014,347,106
2379027,355,106
2379038,338,106
2379044,372,106
2379058,340,106
2379069,344,106
2379078,352,106
2379090,317,106
2379095,355,106
2379110,338,106
2379120,329,106
2379128,362,106
2379140,318,106
2379151,340,106
2379161,486,108
2379171,659,108
2379178,659,108
2379192,398,108
2379202,232,108
2379211,345,108
2379223,311,108
2379228,339,108
2379228,326,108
2379253,316,108
2379261,354,108
2379274,319,108
2379283,344,108
2379294,353,108
2379305,331,108
2379314,374,108
2379325,349,108
2379336,359,108
2379345,384,108
2379356,349,108
2379364,384,108
2379376,379,108
2379387,370,108
2379396,417,108
2379407,391,108
2379417,428,108
2379428,453,108
2379438,437,108
2379444,484,108
2379458,461,108
2379462,457,108
2379478,457,108
2379489,379,108
2379494,374,108
2379509,338,108
2379519,303,108
2379528,331,108
2379541,293,108
2379546,308,108
2379561,320,108
2379570,286,108
2379578,321,108
2379592,297,108
2379595,293,108
2379612,324,108
2379622,288,108
2379628,320,108
2379643,318,108
2379654,299,108
2379661,338,108
2379674,303,108
2379678,316,108
2379695,330,108
2379695,298,108
2379714,336,108
2379725,316,108
2379728,307,108
2379744,339,108
2379756,298,108
2379761,325,108
2379776,322,108
2379778,299,108
2379794,338,108
2379808,305,108
2379815,315,108
2379828,333,108
2379828,299,108
2379845,336,108
2379859,322,108
2379869,312,108
2379878,344,108
2379889,307,108
2379895,329,108
2379911,332,108
2379921,304,108
2379929,342,108
2379941,310,108
2379951,317,108
2379962,340,108
2379972,302,108
2379979,337,108
2379993,324,108
2380003,308,108
2380013,342,108
2380023,303,108
2380029,326,108
2380044,330,108
2380055,298,108
2380063,337,108
2380074,310,108
2380084,311,108
2380094,337,108
2380105,301,108
2380115,334,108
2380125,322,108
2380128,313,108
2380145,356,108
2380145,318,108
2380167,334,108
2380177,338,108
2380188,298,108
2380195,333,108
2380208,307,108
2380215,307,108
2380228,333,108
2380239,297,108
2380244,328,108
2380244,311,108
2380262,343,108
2380277,622,108
2380291,659,108
2380301,616,108
2380310,230,108
2380321,257,108
2380328,330,108
2380341,292,108
2380352,284,108
2380361,317,108
2380372,280,108
2380378,309,108
2380378,309,108
2380395,291,108
2380411,335,108
2380424,305,108
2380429,317,108
2380444,335,108
2380446,301,108
2380462,344,108
2380472,328,108
2380477,323,108
2380496,361,108
2380506,333,108
2380515,371,108
2380519,386,108
2380536,373,108
2380546,429,108
2380557,410,108
2380567,426,108
2380577,445,108
2380588,395,108
2380595,403,108
2380608,351,108
2380618,310,108
2380628,323,108
2380639,270,108
2380644,288,108
2380660,289,108
2380670,260,108
2380678,299,108
2380691,270,108
2380695,273,108
2380710,296,108
2380722,259,108
2380728,296,108
2380742,284,108
2380744,271,108
2380761,310,108
2380772,274,108
2380778,296,108
2380792,304,108
2380803,272,108
2380813,310,108
2380823,284,108
2380834,284,108
2380845,311,108
2380855,273,108
2380862,306,108
2380875,297,108
2380886,278,108
2380895,315,108
2380906,278,108
2380916,296,108
2380927,308,108
2380937,276,108
2380945,316,108
2380957,294,108
2380967,294,108
2380978,324,108
2380988,285,108
2380994,319,108
2381009,316,108
2381019,294,108
2381029,331,108
2381029,298,108
2381046,311,108
2381059,325,108
2381070,290,108
2381078,330,108
2381091,309,108
2381101,306,108
2381112,338,108
2381121,301,108
2381128,331,108
2381142,329,108
2381152,305,108
2381161,342,108
2381174,308,108
2381178,320,108
2381194,337,108
2381194,300,108
2381211,338,108
2381224,319,108
2381235,312,108
2381245,346,108
2381256,309,108
2381261,338,108
2381276,340,108
2381285,312,108
2381295,353,108
2381306,321,108
2381316,329,108
2381327,349,108
2381337,310,108
2381345,347,108
2381357,333,108
2381368,322,108
2381378,356,108
2381389,326,108
2381395,356,108
2381409,358,108
2381419,325,108
2381428,362,108
2381439,323,108
2381445,326,108
2381461,349,108
2381471,310,108
2381478,345,108
2381491,333,108
2381495,317,108
2381512,341,108
2381522,388,108
2381529,656,103
2381529,659,103
2381553,550,103
2381562,237,103
2381571,298,103
2381584,313,103
2381593,323,103
2381604,283,103
2381612,317,103
2381620,312,103
2381635,294,103
2381644,336,103
2381655,304,103
2381661,326,103
2381675,340,103
2381687,306,103
2381695,346,103
2381695,320,103
2381716,316,103
2381727,345,103
2381729,311,103
2381744,349,103
2381744,353,103
2381762,341,103
2381778,395,103
2381789,372,103
2381795,403,103
2381795,428,103
2381816,401,103
2381828,440,103
2381828,405,103
2381851,370,103
2381860,365,103
2381871,296,103
2381878,304,103
2381878,289,103
2381895,260,103
2381911,297,103
2381923,262,103
2381930,272,103
2381930,289,103
2381946,252,103
2381962,290,103
2381974,274,103
2381984,266,103
2381994,304,103
2381995,269,103
2382011,298,103
2382021,302,103
2382028,278,103
2382045,317,103
2382045,285,103
2382062,292,103
2382076,310,103
2382086,277,103
2382095,313,103
2382107,297,103
2382116,284,103
2382127,319,103
2382138,282,103
2382145,304,103
2382159,310,103
2382168,283,103
2382177,323,103
2382189,294,103
2382195,301,103
2382195,327,103
2382216,290,103
2382228,327,103
2382241,316,103
2382251,305,103
2382261,340,103
2382272,301,103
2382278,323,103
2382278,330,103
2382302,303,103
2382312,342,103
2382320,313,103
2382328,317,103
2382343,346,103
2382345,309,103
2382362,343,103
2382375,338,103
2382384,320,103
2382395,355,103
2382395,319,103
2382411,335,103
2382426,346,103
2382436,311,103
2382445,350,103
2382456,328,103
2382462,326,103
2382469,353,103
2382487,315,103
2382494,345,103
2382508,337,103
2382518,320,103
2382528,357,103
2382538,322,103
2382545,343,103
2382558,366,103
2382569,331,103
2382578,366,103
2382590,338,103
2382595,324,103
2382595,351,103
2382620,311,103
2382628,342,103
2382641,339,103
2382645,316,103
2382661,353,103
2382672,311,103
2382678,427,90
2382693,659,90
2382703,659,90
2382712,508,90
2382723,218,90
2382728,307,90
2382744,351,90
2382754,306,90
2382762,332,90
2382771,336,90
2382779,314,90
2382795,355,90
2382806,327,90
2382812,343,90
2382821,365,90
2382835,332,90
2382845,372,90
2382856,361,90
2382867,351,90
2382877,388,90
2382887,353,90
2382895,382,90
2382895,391,90
2382918,373,90
2382928,423,90
2382938,410,90
2382945,432,90
2382945,469,90
2382970,444,90
2382978,484,90
2382990,467,98
2382995,433,98
2383011,436,98
2383021,360,98
2383029,351,98
2383042,334,98
2383046,293,98
2383062,327,98
2383072,297,98
2383078,298,98
2383092,323,98
2383095,283,98
2383112,312,98
2383120,304,98
2383129,288,98
2383145,325,98
2383154,295,98
2383162,316,98
2383171,330,98
2383180,300,98
2383195,340,98
2383206,314,98
2383213,314,98
2383226,340,98
2383228,303,98
2383245,334,98
2383257,327,98
2383264,306,98
2383278,344,98
2383278,311,98
2383294,325,98
2383307,338,98
2383319,303,98
2383328,339,98
2383339,318,98
2383345,314,98
2383345,343,98
2383369,306,98
2383379,335,98
2383390,332,98
2383395,311,98
2383411,350,98
2383421,317,98
2383428,329,98
2383442,344,98
2383452,310,98
2383461,346,98
2383473,326,98
2383478,320,98
2383493,350,98
2383503,314,98
2383512,340,98
2383524,341,98
2383534,317,98
2383545,356,98
2383555,325,98
2383561,333,98
2383575,351,98
2383579,316,98
2383594,352,98
2383606,335,98
2383612,323,98
2383620,361,98
2383637,333,98
2383645,361,98
2383657,360,98
2383663,333,98
2383669,363,98
2383678,327,98
2383695,332,98
2383695,352,98
2383719,313,98
2383729,346,98
2383739,332,98
2383744,309,98
2383760,350,98
2383767,473,91
2383778,659,91
2383791,659,91
2383801,335,91
2383811,258,91
2383821,314,91
2383827,309,91
2383842,324,91
2383852,286,91
2383861,320,91
2383873,310,91
2383879,296,91
2383879,336,91
2383903,304,91
2383912,329,91
2383924,342,91
2383929,313,91
2383944,357,91
2383955,335,91
2383961,339,91
2383975,369,91
2383985,335,91
2383994,374,91
2384007,375,91
2384016,366,91
2384027,415,91
2384036,394,91
2384045,424,91
2384057,444,91
2384068,416,100
2384078,450,100
2384089,402,100
2384095,364,100
2384109,356,100
2384119,291,100
2384128,300,100
2384140,283,100
2384150,257,100
2384160,294,100
2384170,260,100
2384179,271,100
2384191,286,100
2384196,248,100
2384211,284,100
2384222,267,100
2384228,263,100
2384242,294,100
2384252,258,100
2384261,289,100
2384273,289,100
2384284,265,100
2384293,302,100
2384305,272,100
2384312,281,100
2384325,299,100
2384335,261,100
2384345,300,100
2384345,282,100
2384361,273,100
2384376,307,100
2384379,268,100
2384394,292,100
2384406,294,100
2384411,267,100
2384426,307,100
2384429,276,100
2384444,285,100
2384458,306,100
2384462,271,100
2384479,310,100
2384479,298,100
2384495,288,100
2384509,323,100
2384512,284,100
2384529,308,100
2384541,313,100
2384551,281,100
2384561,321,100
2384570,294,100
2384578,300,100
2384591,324,100
2384602,289,100
2384611,326,100
2384622,317,100
2384628,301,100
2384643,338,100
2384653,302,100
2384661,324,100
2384674,331,100
2384683,299,100
2384693,339,100
2384704,312,100
2384714,315,100
2384724,340,100
2384735,302,100
2384744,335,100
2384755,329,100
2384762,312,100
2384776,351,100
2384786,316,100
2384794,333,100
2384794,343,100
2384817,310,100
2384827,349,100
2384837,324,100
2384844,322,100
2384858,355,100
2384868,324,100
2384878,359,100
2384889,353,100
2384895,329,100
2384895,360,100
2384920,318,100
2384929,331,100
2384941,346,100
2384951,310,100
2384960,351,100
2384971,330,100
2384978,322,100
2384978,346,100
2385002,427,90
2385011,659,90
2385022,659,90
2385032,451,90
2385043,245,90
2385054,307,90
2385062,321,90
2385074,325,90
2385079,291,90
2385095,331,90
2385104,314,90
2385111,307,90
2385125,342,90
2385135,307,90
2385144,340,90
2385156,342,90
2385163,316,90
2385176,357,90
2385178,326,90
2385195,337,90
2385207,361,90
2385218,332,90
2385228,375,90
2385228,364,90
2385245,366,90
2385259,413,90
2385262,390,90
2385278,429,90
2385290,444,90
2385296,420,90
2385311,459,97
2385320,412,97
2385328,387,97
2385341,375,97
2385351,309,97
2385361,321,97
2385372,294,97
2385378,275,97
2385392,308,97
2385403,270,97
2385412,292,97
2385422,296,97
2385433,263,97
2385443,300,97
2385444,270,97
2385461,273,97
2385474,298,97
2385478,259,97
2385494,294,97
2385505,285,97
2385512,268,97
2385526,303,97
2385536,264,97
2385546,279,97
2385556,287,97
2385564,254,97
2385577,293,97
2385587,264,97
2385596,264,97
2385608,290,97
2385612,251,97
2385628,283,97
2385639,274,97
2385646,254,97
2385659,293,97
2385669,260,97
2385678,279,97
2385690,293,97
2385700,263,97
2385710,308,97
2385721,284,97
2385728,279,97
2385742,311,97
2385750,274,97
2385762,305,97
2385772,301,97
2385778,279,97
2385793,319,97
2385803,285,97
2385811,302,97
2385821,319,97
2385827,288,97
2385842,329,97
2385842,310,97
2385858,303,97
2385874,337,97
2385885,299,97
2385892,329,97
2385905,326,97
2385916,302,97
2385925,343,97
2385937,311,97
2385942,322,97
2385957,343,97
2385967,309,97
2385974,347,97
2385988,333,97
2385998,325,97
2386008,355,97
2386018,320,97
2386027,348,97
2386027,349,97
2386049,324,97
2386058,372,97
2386070,346,97
2386075,351,97
2386091,373,97
2386100,328,97
2386108,354,97
2386121,338,97
2386131,329,97
2386141,363,97
2386152,324,97
2386159,349,97
2386173,352,97
2386183,322,97
2386192,498,89
2386192,659,89
2386208,660,89
2386224,455,89
2386234,213,89
2386242,344,89
2386254,332,89
2386265,309,89
2386275,347,89
2386285,311,89
2386292,335,89
2386306,348,89
2386316,321,89
2386325,360,89
2386337,342,89
2386347,347,89
2386357,374,89
2386368,339,89
2386376,376,89
2386376,367,89
2386399,353,89
2386409,395,89
2386418,366,89
2386425,394,89
2386439,414,89
2386450,398,89
2386458,452,89
2386470,441,89
2386475,450,89
2386491,482,89
2386500,439,96
2386509,454,96
2386521,411,96
2386532,351,96
2386542,357,96
2386553,299,96
2386558,302,96
2386572,307,96
2386583,272,96
2386591,310,96
2386603,284,96
2386613,282,96
2386621,310,96
2386634,274,96
2386643,303,96
2386654,301,96
2386665,283,96
2386676,323,96
2386686,292,96
2386692,308,96
2386707,320,96
2386717,287,96
2386726,325,96
2386737,306,96
2386742,302,96
2386758,336,96
2386767,298,96
2386777,325,96
2386788,324,96
2386799,296,96
2386808,333,96
2386819,303,96
2386825,312,96
2386840,330,96
2386850,297,96
2386858,333,96
2386870,319,96
2386880,313,96
2386890,345,96
2386902,310,96
2386908,335,96
2386922,336,96
2386932,310,96
2386942,348,96
2386952,318,96
2386958,326,96
2386973,349,96
2386976,313,96
2386992,347,96
2387004,332,96
2387011,327,96
2387024,369,96
2387026,328,96
2387041,355,96
2387041,352,96
2387059,316,96
2387076,353,96
2387076,324,96
2387091,328,96
2387107,350,96
2387117,311,96
2387125,343,96
2387137,326,96
2387141,443,91
2387158,659,91
2387168,659,91
2387175,416,91
2387175,239,91
2387196,300,91
2387209,345,91
2387219,311,91
2387230,314,91
2387240,341,91
2387247,306,91
2387259,340,91
2387271,333,91
2387276,317,91
2387291,359,91
2387301,329,91
2387310,349,91
2387322,365,91
2387331,335,91
2387342,377,91
2387353,355,91
2387359,358,91
2387373,392,91
2387383,362,91
2387391,403,91
2387403,412,91
2387414,409,91
2387425,460,91
2387435,438,91
2387445,460,101
2387450,464,101
2387466,403,101
2387475,400,101
2387483,341,101
2387497,309,101
2387507,321,101
2387517,271,101
2387527,299,101
2387538,295,101
2387548,272,101
2387556,309,101
2387564,274,101
2387579,284,101
2387587,302,101
2387598,269,101
2387609,308,101
2387619,292,101
2387624,289,101
2387640,324,101
2387650,289,101
2387657,315,101
2387671,313,101
2387674,287,101
2387691,327,101
2387702,295,101
2387712,307,101
2387723,327,101
2387730,291,101
2387741,325,101
2387741,308,101
2387756,297,101
2387774,332,101
2387778,294,101
2387794,315,101
2387805,317,101
2387815,291,101
2387824,330,101
2387829,302,101
2387845,310,101
2387855,332,101
2387862,296,101
2387876,332,101
2387887,319,101
2387894,306,101
2387907,340,101
2387918,302,101
2387928,324,101
2387938,328,101
2387945,299,101
2387959,339,101
2387969,311,101
2387979,316,101
2387979,342,101
2387995,303,101
2388010,338,101
2388020,326,101
2388029,309,101
2388040,346,101
2388051,318,101
2388061,344,101
2388071,350,101
2388078,317,101
2388092,349,101
2388103,316,101
2388111,314,101
2388123,338,101
2388128,300,101
2388144,332,101
2388154,325,101
2388161,305,101
2388174,328,101
2388185,358,101
2388195,626,108
2388204,660,108
2388211,580,108
2388225,225,108
2388236,280,108
2388245,306,108
2388256,319,108
2388263,280,108
2388277,310,108
2388287,306,108
2388295,287,108
2388307,328,108
2388318,299,108
2388328,320,108
2388339,337,108
2388345,306,108
2388345,348,108
2388369,329,108
2388379,325,108
2388379,356,108
2388395,321,108
2388410,357,108
2388419,364,108
2388429,352,108
2388429,403,108
2388445,384,108
2388461,412,108
2388472,441,108
2388478,412,108
2388492,449,108
2388503,416,108
2388512,376,108
2388523,370,108
2388529,303,108
2388544,307,108
2388546,293,108
2388562,262,108
2388575,298,108
2388579,268,108
2388595,276,108
2388605,297,108
2388613,259,108
2388626,295,108
2388637,279,108
2388645,270,108
2388657,306,108
2388662,268,108
2388676,296,108
2388688,301,108
2388695,272,108
2388709,313,108
2388718,282,108
2388729,290,108
2388738,313,108
2388745,276,108
2388760,314,108
2388770,299,108
2388778,288,108
2388791,320,108
2388800,280,108
2388810,303,108
2388821,309,108
2388828,277,108
2388842,320,108
2388852,295,108
2388861,297,108
2388872,323,108
2388878,288,108
2388893,322,108
2388903,313,108
2388912,296,108
2388924,335,108
2388929,298,108
2388945,318,108
2388954,326,108
2388961,295,108
2388975,333,108
2388978,307,108
2388994,307,108
2389006,334,108
2389012,295,108
2389023,333,108
2389029,323,108
2389045,305,108
2389057,345,108
2389068,309,108
2389078,327,108
2389079,338,108
2389095,306,108
2389108,347,108
2389116,321,108
2389128,320,108
2389139,346,108
2389145,308,108
2389160,339,108
2389170,334,108
2389178,316,108
2389190,354,108
2389201,320,108
2389211,335,108
2389212,348,108
2389229,315,108
2389242,352,108
2389252,330,108
2389263,323,108
2389265,358,108
2389279,329,108
2389293,357,108
2389296,351,108
2389312,328,108
2389324,360,108
2389328,321,108
2389345,330,108
2389355,348,108
2389362,312,108
2389375,350,108
2389386,332,108
2389395,314,108
2389406,361,108
2389416,501,106
2389426,659,106
2389437,659,106
2389445,305,106
2389457,276,106
2389468,318,106
2389479,312,106
2389488,324,106
2389496,287,106
2389509,324,106
2389512,309,106
2389529,300,106
2389529,338,106
2389545,303,106
2389560,333,106
2389570,339,106
2389580,312,106
2389591,353,106
2389602,324,106
2389612,333,106
2389622,354,106
2389629,323,106
2389629,367,106
2389645,362,106
2389663,359,106
2389673,409,106
2389679,387,106
2389694,421,106
2389703,437,106
2389712,411,106
2389724,444,106
2389728,393,106
2389744,361,106
2389755,352,106
2389765,289,106
2389776,305,106
2389786,283,106
2389795,263,106
2389806,299,106
2389812,261,106
2389827,282,106
2389828,288,106
2389845,256,106
2389858,294,106
2389868,269,106
2389878,272,106
2389889,299,106
2389895,263,106
2389895,299,106
2389919,291,106
2389929,274,106
2389929,312,106
2389950,275,106
2389960,293,106
2389971,304,106
2389979,272,106
2389991,312,106
2390002,288,106
2390012,285,106
2390017,311,106
2390029,274,106
2390029,307,106
2390054,301,106
2390063,280,106
2390071,319,106
2390080,285,106
2390094,300,106
2390104,317,106
2390113,288,106
2390125,326,106
2390129,305,106
2390144,301,106
2390144,331,106
2390161,293,106
2390170,324,106
2390187,320,106
2390195,295,106
2390195,334,106
2390212,303,106
2390228,317,106
2390238,334,106
2390245,298,106
2390258,340,106
2390269,323,106
2390279,318,106
2390289,350,106
2390296,313,106
2390310,340,106
2390320,338,106
2390329,313,106
2390341,353,106
2390345,321,106
2390361,333,106
2390364,350,106
2390378,312,106
2390391,350,106
2390396,333,106
2390412,325,106
2390423,359,106
2390428,322,106
2390443,348,106
2390445,351,106
2390461,323,106
2390473,361,106
2390479,331,106
2390479,336,106
2390505,360,106
2390512,334,106
2390525,370,106
2390529,351,106
2390545,340,106
2390556,365,106
2390562,323,106
2390572,345,106
2390579,350,106
2390596,319,106
2390608,360,106
2390612,333,106
2390627,328,106
2390638,363,106
2390645,516,106
2390658,659,106
2390668,659,106
2390678,315,106
2390689,279,106
2390695,314,106
2390710,324,106
2390720,327,106
2390728,298,106
2390740,340,106
2390745,314,106
2390760,318,106
2390771,349,106
2390779,317,106
2390792,354,106
2390803,350,106
2390812,333,106
2390812,374,106
2390828,340,106
2390838,357,106
2390854,371,106
2390862,348,106
2390874,393,106
2390884,378,106
2390895,391,106
2390896,435,106
2390913,409,106
2390926,454,106
2390934,459,106
2390944,443,106
2390956,471,106
2390962,411,106
2390977,391,106
2390986,368,106
2390995,306,106
2391007,325,106
2391017,292,106
2391028,285,106
2391029,314,106
2391045,274,106
2391059,303,106
2391070,299,106
2391079,274,106
2391090,314,106
2391095,282,106
2391111,298,106
2391121,312,106
2391129,280,106
2391140,321,106
2391146,303,106
2391161,300,106
2391172,335,106
2391179,295,106
2391192,326,106
2391203,324,106
2391213,296,106
2391223,335,106
2391233,303,106
2391244,311,106
2391254,329,106
2391262,291,106
2391274,325,106
2391285,306,106
2391294,298,106
2391306,331,106
2391312,295,106
2391325,321,106
2391330,326,106
2391345,297,106
2391357,340,106
2391362,307,106
2391377,315,106
2391387,333,106
2391395,300,106
2391408,336,106
2391418,318,106
2391428,304,106
2391440,344,106
2391445,311,106
2391459,341,106
2391470,344,106
2391478,318,106
2391490,348,106
2391496,315,106
2391496,317,106
2391521,338,106
2391528,303,106
2391542,337,106
2391552,324,106
2391562,304,106
2391572,343,106
2391579,470,111
2391592,659,111
2391602,659,111
2391612,322,111
2391623,256,111
2391633,308,111
2391644,309,111
2391645,326,111
2391662,292,111
2391674,327,111
2391679,322,111
2391695,308,111
2391706,345,111
2391712,316,111
2391725,338,111
2391729,352,111
2391745,323,111
2391745,366,111
2391763,347,111
2391777,349,111
2391787,380,111
2391796,349,111
2391796,385,111
2391812,385,111
2391828,380,111
2391840,434,111
2391845,418,111
2391860,451,111
2391869,472,111
2391879,442,111
2391879,468,111
2391895,415,111
2391910,369,111
2391922,361,111
2391928,297,111
2391942,307,111
2391946,295,111
2391962,269,111
2391972,305,111
2391978,271,111
2391993,283,111
2392003,296,111
2392011,261,111
2392024,300,111
2392029,281,111
2392029,280,111
2392055,314,111
2392062,280,111
2392072,311,111
2392079,310,111
2392094,286,111
2392106,323,111
2392112,291,111
2392120,302,111
2392137,320,111
2392145,285,111
2392145,322,111
