Timestamp,ECGValue,BPM
2518785,379,106
2518792,320,106
2518807,311,106
2518813,293,106
2518824,263,106
2518838,288,106
2518847,262,106
2518858,269,106
2518868,282,106
2518876,254,106
2518889,282,106
2518892,268,106
2518908,259,106
2518919,285,106
2518929,257,106
2518940,278,106
2518950,283,106
2518958,264,106
2518958,294,106
2518976,273,106
2518991,278,106
2519002,296,106
2519008,268,106
2519022,295,106
2519032,288,106
2519041,281,106
2519053,306,106
2519058,280,106
2519074,297,106
2519083,301,106
2519092,281,106
2519104,312,106
2519115,291,106
2519125,295,106
2519135,315,106
2519141,289,106
2519155,318,106
2519165,314,106
2519175,307,106
2519186,335,106
2519191,309,106
2519207,324,106
2519208,328,106
2519227,306,106
2519237,334,106
2519241,314,106
2519258,315,106
2519267,338,106
2519275,314,106
2519289,342,106
2519299,335,106
2519308,322,106
2519320,352,106
2519325,325,106
2519340,337,106
2519341,342,106
2519357,318,106
2519371,350,106
2519381,331,106
2519392,329,106
2519402,350,106
2519408,322,106
2519423,345,106
2519433,344,106
2519442,326,106
2519442,356,106
2519464,342,106
2519473,356,106
2519484,366,106
2519491,340,106
2519504,361,106
2519515,339,106
2519525,336,106
2519525,357,106
2519543,329,106
2519556,351,106
2519566,347,106
2519575,328,106
2519586,346,106
2519592,423,108
2519608,658,108
2519617,660,108
2519624,482,108
2519638,243,108
2519642,318,108
2519658,329,108
2519668,340,108
2519675,313,108
2519690,337,108
2519700,336,108
2519708,320,108
2519720,355,108
2519731,334,108
2519741,348,108
2519751,365,108
2519759,342,108
2519763,371,108
2519782,360,108
2519792,357,108
2519802,381,108
2519808,358,108
2519823,384,108
2519825,392,108
2519842,384,108
2519853,428,108
2519862,419,108
2519874,440,108
2519884,467,108
2519891,448,108
2519905,479,108
2519911,459,108
2519926,430,108
2519936,417,108
2519942,353,108
2519956,343,108
2519967,328,108
2519975,297,108
2519987,319,108
2519997,297,108
2520008,298,108
2520018,313,108
2520025,282,108
2520038,310,108
2520042,300,108
2520058,294,108
2520069,324,108
2520075,301,108
2520089,322,108
2520092,327,108
2520109,307,108
2520118,334,108
2520125,314,108
2520141,314,108
2520151,333,108
2520159,303,108
2520171,327,108
2520182,320,108
2520191,310,108
2520202,337,108
2520208,309,108
2520223,324,108
2520233,329,108
2520242,306,108
2520255,334,108
2520264,314,108
2520274,318,108
2520285,338,108
2520291,311,108
2520305,336,108
2520311,330,108
2520324,318,108
2520336,344,108
2520341,317,108
2520356,329,108
2520366,337,108
2520375,311,108
2520388,338,108
2520398,325,108
2520407,333,108
2520419,358,108
2520425,325,108
2520439,347,108
2520442,335,108
2520459,315,108
2520469,342,108
2520475,317,108
2520491,327,108
2520500,335,108
2520508,310,108
2520516,334,108
2520531,324,108
2520542,480,113
2520552,659,113
2520559,658,113
2520572,327,113
2520583,244,113
2520591,307,113
2520603,330,113
2520613,297,113
2520624,308,113
2520634,324,113
2520641,299,113
2520654,329,113
2520664,318,113
2520674,318,113
2520685,347,113
2520691,320,113
2520706,345,113
2520709,347,113
2520725,330,113
2520736,359,113
2520742,335,113
2520742,345,113
2520767,364,113
2520775,345,113
2520775,381,113
2520791,382,113
2520808,391,113
2520818,430,113
2520825,413,113
2520839,440,113
2520842,439,113
2520859,402,113
2520870,397,113
2520875,337,113
2520890,308,113
2520891,298,113
2520908,254,113
2520921,276,113
2520927,265,113
2520941,257,113
2520952,283,113
2520959,254,113
2520972,272,113
2520976,274,113
2520992,251,113
2521004,285,113
2521008,263,113
2521024,268,113
2521034,286,113
2521042,258,113
2521042,286,113
2521059,278,113
2521075,270,113
2521086,297,113
2521091,269,113
2521106,286,113
2521115,291,113
2521125,270,113
2521137,299,113
2521142,280,113
2521142,283,113
2521159,303,113
2521176,274,113
2521188,302,113
2521198,292,113
2521209,282,113
2521214,310,113
2521227,283,113
2521227,300,113
2521244,307,113
2521259,287,113
2521270,320,113
2521276,301,113
2521291,302,113
2521300,322,113
2521307,292,113
2521316,316,113
2521332,309,113
2521341,295,113
2521353,325,113
2521359,299,113
2521366,313,113
2521384,323,113
2521392,300,113
2521404,331,113
2521408,312,113
2521424,313,113
2521435,333,113
2521441,304,113
2521456,327,113
2521466,323,113
2521475,307,113
2521486,337,113
2521492,311,113
2521507,324,113
2521508,335,113
2521525,310,113
2521534,341,113
2521548,323,113
2521557,319,113
2521567,343,113
2521575,315,113
2521588,341,113
2521599,334,113
2521608,318,113
2521619,347,113
2521630,324,113
2521640,344,113
2521650,359,113
2521659,331,113
2521670,358,113
2521681,338,113
2521691,327,113
2521702,349,113
2521708,320,113
2521722,341,113
2521732,341,113
2521741,322,113
2521741,349,113
2521759,313,113
2521773,424,106
2521774,658,106
2521791,659,106
2521791,510,106
2521808,226,106
2521824,310,106
2521836,338,106
2521841,295,106
2521855,316,106
2521865,317,106
2521874,298,106
2521887,330,106
2521891,311,106
2521907,322,106
2521917,343,106
2521925,317,106
2521925,347,106
2521948,337,106
2521957,330,106
2521967,360,106
2521974,336,106
2521989,359,106
2521999,365,106
2522008,354,106
2522015,393,106
2522030,381,106
2522040,397,106
2522050,429,106
2522060,413,106
2522071,449,106
2522081,443,106
2522091,429,106
2522102,438,106
2522108,376,106
2522113,358,106
2522133,335,106
2522142,294,106
2522142,312,106
2522160,286,106
2522168,287,106
2522184,306,106
2522193,278,106
2522193,304,106
2522215,293,106
2522224,281,106
2522235,311,106
2522241,284,106
2522241,300,106
2522260,307,106
2522275,282,106
2522287,312,106
2522292,291,106
2522292,291,106
2522309,314,106
2522325,284,106
2522338,312,106
2522342,305,106
2522358,291,106
2522368,318,106
2522375,290,106
2522389,304,106
2522400,311,106
2522408,287,106
2522420,319,106
2522431,300,106
2522441,302,106
2522450,323,106
2522460,295,106
2522462,323,106
2522474,318,106
2522491,304,106
2522503,335,106
2522507,308,106
2522523,320,106
2522525,331,106
2522541,304,106
2522553,333,106
2522564,314,106
2522574,311,106
2522584,335,106
2522592,307,106
2522605,330,106
2522615,328,106
2522624,311,106
2522636,343,106
2522641,317,106
2522657,327,106
2522666,339,106
2522675,310,106
2522686,339,106
2522692,322,106
2522707,316,106
2522712,340,106
2522724,311,106
2522738,332,106
2522748,330,106
2522758,312,106
2522769,343,106
2522776,318,106
2522790,327,106
2522800,340,106
2522808,313,106
2522820,343,106
2522830,327,106
2522841,321,106
2522852,345,106
2522860,317,106
2522872,336,106
2522883,335,106
2522892,315,106
2522903,345,106
2522908,331,106
2522922,340,106
2522933,351,106
2522943,320,106
2522954,339,106
2522961,318,106
2522974,309,106
2522985,333,106
2522991,305,106
2523005,324,106
2523008,326,106
2523026,304,106
2523036,326,106
2523042,392,106
2523056,654,103
2523067,659,103
2523074,482,103
2523086,217,103
2523098,298,103
2523109,297,103
2523118,315,103
2523124,286,103
2523138,303,103
2523149,308,103
2523158,288,103
2523170,322,103
2523175,307,103
2523175,312,103
2523191,336,103
2523210,314,103
2523221,345,103
2523225,340,103
2523241,331,103
2523251,359,103
2523260,338,103
2523272,357,103
2523282,371,103
2523292,357,103
2523303,399,103
2523313,393,103
2523323,410,103
2523326,443,103
2523341,425,103
2523354,456,103
2523360,443,103
2523374,412,103
2523385,405,103
2523391,344,103
2523405,329,103
2523416,318,103
2523424,281,103
2523436,304,103
2523441,282,103
2523456,282,103
2523462,302,103
2523475,271,103
2523487,293,103
2523491,288,103
2523507,273,103
2523518,304,103
2523526,280,103
2523539,292,103
2523549,305,103
2523558,282,103
2523569,315,103
2523575,296,103
2523590,295,103
2523592,318,103
2523609,290,103
2523622,315,103
2523632,314,103
2523642,300,103
2523642,328,103
2523660,301,103
2523672,312,103
2523683,320,103
2523692,297,103
2523703,324,103
2523714,312,103
2523724,310,103
2523734,336,103
2523742,308,103
2523754,332,103
2523764,328,103
2523774,314,103
2523785,343,103
2523791,318,103
2523806,328,103
2523816,340,103
2523826,315,103
2523826,344,103
2523842,329,103
2523858,326,103
2523867,349,103
2523874,322,103
2523888,341,103
2523898,342,103
2523908,324,103
2523919,351,103
2523929,328,103
2523939,335,103
2523949,349,103
2523958,321,103
2523970,348,103
2523980,336,103
2523991,328,103
2523991,353,103
2524008,326,103
2524021,344,103
2524032,351,103
2524042,341,103
2524042,372,103
2524061,348,103
2524073,350,103
2524075,355,103
2524091,322,103
2524104,347,103
2524114,334,103
2524124,325,103
2524126,351,103
2524142,323,103
2524155,327,103
2524165,375,103
2524175,586,104
2524186,659,104
2524191,645,104
2524206,235,104
2524216,301,104
2524226,315,104
2524226,335,104
2524242,323,104
2524258,311,104
2524267,341,104
2524274,317,104
2524289,334,104
2524299,344,104
2524308,325,104
2524319,357,104
2524325,343,104
2524339,349,104
2524350,369,104
2524359,344,104
2524361,370,104
2524375,366,104
2524391,361,104
2524401,395,104
2524408,377,104
2524422,403,104
2524433,425,104
2524441,417,104
2524452,458,104
2524463,449,104
2524473,455,104
2524483,471,105
2524491,423,105
2524505,411,105
2524508,368,105
2524524,324,105
2524534,329,105
2524542,288,105
2524556,295,105
2524565,302,105
2524575,278,105
2524586,305,105
2524592,287,105
2524607,286,105
2524614,308,105
2524624,281,105
2524637,306,105
2524641,306,105
2524657,292,105
2524668,323,105
2524674,297,105
2524689,305,105
2524699,318,105
2524708,291,105
2524720,317,105
2524725,303,105
2524740,302,105
2524741,326,105
2524758,297,105
2524762,318,105
2524776,318,105
2524791,299,105
2524801,327,105
2524808,301,105
2524822,309,105
2524825,320,105
2524842,294,105
2524842,322,105
2524862,309,105
2524874,303,105
2524883,328,105
2524892,300,105
2524904,321,105
2524915,322,105
2524925,303,105
2524935,332,105
2524941,311,105
2524956,316,105
2524966,330,105
2524975,306,105
2524976,334,105
2524997,320,105
2525007,314,105
2525017,339,105
2525024,311,105
2525038,329,105
2525042,329,105
2525058,309,105
2525069,339,105
2525074,316,105
2525089,319,105
2525099,335,105
2525108,306,105
2525120,335,105
2525126,327,105
2525126,315,105
2525151,344,105
2525158,330,105
2525171,344,105
2525182,342,105
2525192,318,105
2525202,339,105
2525208,314,105
2525223,314,105
2525233,333,105
2525241,304,105
2525254,329,105
2525264,321,105
2525273,296,105
2525284,373,105
2525291,577,105
2525304,659,105
2525315,618,105
2525325,199,105
2525336,294,105
2525342,308,105
2525342,295,105
2525366,311,105
2525375,283,105
2525386,309,105
2525397,303,105
2525407,291,105
2525417,321,105
2525425,297,105
2525438,315,105
2525441,325,105
2525459,303,105
2525468,337,105
2525479,322,105
2525490,323,105
2525492,345,105
2525509,321,105
2525518,351,105
2525525,355,105
2525540,351,105
2525551,396,105
2525558,386,105
2525564,414,105
2525575,434,105
2525591,412,105
2525602,441,105
2525608,408,105
2525623,372,105
2525626,359,105
2525642,300,105
2525653,298,105
2525664,281,105
2525674,260,105
2525685,288,105
2525691,262,105
2525706,275,105
2525715,287,105
2525724,260,105
2525735,290,105
2525742,274,105
2525742,270,105
2525763,298,105
2525776,268,105
2525776,292,105
2525792,292,105
2525807,273,105
2525818,306,105
2525824,281,105
2525838,290,105
2525849,305,105
2525857,279,105
2525870,307,105
2525875,293,105
2525889,286,105
2525892,311,105
2525908,282,105
2525921,305,105
2525925,303,105
2525941,284,105
2525941,314,105
2525959,290,105
2525972,299,105
2525982,317,105
2525991,289,105
2526003,319,105
2526013,308,105
2526023,302,105
2526033,331,105
2526041,302,105
2526054,322,105
2526063,323,105
2526074,302,105
2526085,331,105
2526091,307,105
2526105,312,105
2526116,329,105
2526126,301,105
2526126,332,105
2526141,323,105
2526156,315,105
2526167,342,105
2526175,313,105
2526187,330,105
2526198,335,105
2526208,311,105
2526219,343,105
2526224,321,105
2526239,325,105
2526249,343,105
2526258,315,105
2526269,343,105
2526280,336,105
2526290,324,105
2526301,352,105
2526308,323,105
2526321,339,105
2526331,346,105
2526342,325,105
2526342,355,105
2526357,333,105
2526373,336,105
2526383,356,105
2526391,325,105
2526403,349,105
2526408,351,105
2526424,342,105
2526434,370,105
2526441,339,105
2526455,349,105
2526464,350,105
2526475,322,105
2526484,350,105
2526492,331,105
2526506,331,105
2526517,350,105
2526525,321,105
2526525,333,105
2526541,386,105
2526557,609,99
2526567,659,99
2526575,604,99
2526588,232,99
2526599,316,99
2526608,316,99
2526618,330,99
2526624,312,99
2526639,313,99
2526649,335,99
2526659,307,99
2526670,333,99
2526677,332,99
2526690,320,99
2526701,353,99
2526708,329,99
2526721,341,99
2526732,354,99
2526742,329,99
2526752,360,99
2526759,351,99
2526773,350,99
2526782,380,99
2526791,360,99
2526803,392,99
2526814,402,99
2526823,398,99
2526834,443,99
2526842,427,99
2526842,443,99
2526864,455,100
2526875,414,100
2526886,410,100
2526891,360,100
2526906,325,100
2526916,330,100
2526925,286,100
2526937,301,100
2526941,297,100
2526957,277,100
2526964,307,100
2526975,278,100
2526988,282,100
2526998,297,100
2527008,268,100
2527020,299,100
2527024,285,100
2527039,279,100
2527050,304,100
2527058,274,100
2527070,294,100
2527081,296,100
2527090,275,100
2527102,307,100
2527108,283,100
2527122,288,100
2527127,302,100
2527141,272,100
2527152,300,100
2527158,288,100
2527167,278,100
2527184,306,100
2527191,279,100
2527204,296,100
2527214,300,100
2527224,277,100
2527235,307,100
2527241,285,100
2527255,290,100
2527265,311,100
2527274,284,100
2527286,313,100
2527291,302,100
2527307,292,100
2527317,318,100
2527325,290,100
2527325,304,100
2527348,307,100
2527358,283,100
2527366,316,100
2527375,296,100
2527388,299,100
2527392,320,100
2527408,290,100
2527419,317,100
2527425,312,100
2527440,299,100
2527450,327,100
2527458,300,100
2527470,316,100
2527481,325,100
2527490,301,100
2527501,330,100
2527508,314,100
2527521,314,100
2527529,337,100
2527541,308,100
2527541,337,100
2527558,332,100
2527574,317,100
2527584,347,100
2527591,321,100
2527604,332,100
2527615,340,100
2527625,320,100
2527626,361,100
2527641,350,100
2527656,341,100
2527666,361,100
2527675,324,100
2527675,345,100
2527691,339,100
2527707,323,100
2527717,351,100
2527725,326,100
2527738,338,100
2527748,340,100
2527758,319,100
2527768,507,100
2527775,659,100
2527788,659,100
2527791,359,100
2527807,234,100
2527820,334,100
2527825,327,100
2527825,303,100
2527851,331,100
2527858,308,100
2527871,320,100
2527875,336,100
2527891,313,100
2527891,347,100
2527909,339,100
2527922,340,100
2527933,368,100
2527942,343,100
2527954,363,100
2527957,362,100
2527973,343,100
2527974,376,100
2527989,358,100
2527989,373,100
2528006,403,100
2528021,389,100
2528035,432,100
2528045,436,100
2528054,440,100
2528067,475,100
2528071,447,100
2528087,456,100
2528097,431,100
2528103,375,100
2528117,368,100
2528126,321,100
2528137,307,100
2528148,316,100
2528154,283,100
2528169,307,100
2528179,296,100
2528187,284,100
2528199,310,100
2528204,280,100
2528220,300,100
2528230,307,100
2528237,289,100
2528250,322,100
2528261,302,100
2528271,304,100
2528282,323,100
2528288,297,100
2528303,322,100
2528303,312,100
2528320,302,100
2528333,331,100
2528337,302,100
2528354,318,100
2528364,325,100
2528370,302,100
2528385,334,100
2528394,311,100
2528404,314,100
2528412,334,100
2528420,305,100
2528436,330,100
2528447,326,100
2528454,313,100
2528466,343,100
2528477,319,100
2528487,333,100
2528487,341,100
2528503,316,100
2528518,346,100
2528521,328,100
2528536,330,100
2528549,348,100
2528559,318,100
2528569,345,100
2528571,340,100
2528589,326,100
2528601,353,100
2528604,326,100
2528621,339,100
2528621,356,100
2528638,338,100
2528638,367,100
2528655,348,100
2528671,341,100
2528683,353,100
2528687,323,100
2528703,346,100
2528713,342,100
2528720,328,100
2528734,357,100
2528744,331,100
2528754,330,100
2528764,408,105
2528774,632,105
2528785,659,105
2528788,590,105
2528804,213,105
2528816,320,105
2528825,320,105
2528837,332,105
2528846,327,105
2528854,312,105
2528867,344,105
2528871,320,105
2528887,330,105
2528898,345,105
2528904,322,105
2528918,356,105
2528928,346,105
2528937,342,105
2528949,369,105
2528954,339,105
2528970,360,105
2528974,364,105
2528988,348,105
2529000,385,105
2529004,369,105
2529021,389,105
2529021,418,105
2529038,406,105
2529052,451,105
2529061,447,105
2529071,446,105
2529082,466,105
2529093,413,105
2529103,397,105
2529113,362,105
2529120,310,105
2529133,318,105
2529144,281,105
2529154,282,105
2529154,298,105
2529171,267,105
2529185,295,105
2529196,282,105
2529204,271,105
2529216,296,105
2529226,268,105
2529237,286,105
2529247,293,105
2529254,274,105
2529267,307,105
2529271,286,105
2529287,290,105
2529298,306,105
2529304,272,105
2529319,299,105
2529329,289,105
2529337,278,105
2529349,307,105
2529355,278,105
2529370,297,105
2529379,301,105
2529387,277,105
2529401,308,105
2529411,283,105
2529420,285,105
2529431,305,105
2529437,275,105
2529437,301,105
2529454,292,105
2529471,279,105
2529471,308,105
2529488,280,105
2529503,298,105
2529514,305,105
2529520,283,105
2529520,313,105
2529544,293,105
2529553,293,105
2529562,312,105
2529575,283,105
2529586,308,105
2529596,302,105
2529604,288,105
2529616,320,105
2529627,293,105
2529637,310,105
2529647,318,105
2529654,292,105
2529654,323,105
2529677,306,105
2529687,305,105
2529699,327,105
2529703,300,105
2529719,325,105
2529729,322,105
2529737,306,105
2529737,335,105
2529760,307,105
2529771,322,105
2529780,333,105
2529787,304,105
2529802,336,105
2529811,328,105
2529820,329,105
2529832,349,105
2529842,316,105
2529853,337,105
2529863,327,105
2529871,307,105
2529871,338,105
2529888,311,105
2529904,325,105
2529914,337,105
2529920,308,105
2529935,330,105
2529937,405,104
2529954,655,104
2529965,659,104
2529976,501,104
2529986,226,104
2529996,319,104
2530004,309,104
2530017,325,104
2530024,300,104
2530037,311,104
2530048,325,104
2530055,298,104
2530068,331,104
2530072,322,104
2530088,320,104
2530099,349,104
2530104,320,104
2530104,343,104
2530130,345,104
2530137,328,104
2530150,360,104
2530161,340,104
2530171,353,104
2530181,374,104
2530187,358,104
2530201,399,104
2530212,399,104
2530222,404,104
2530232,443,104
2530243,422,104
2530252,447,104
2530262,446,104
2530271,407,104
2530283,406,104
2530288,348,104
2530304,323,104
2530314,319,104
2530323,278,104
2530335,301,104
2530345,286,104
2530354,278,104
2530366,305,104
2530376,274,104
2530386,293,104
2530387,299,104
2530405,275,104
2530417,309,104
2530427,287,104
2530437,291,104
2530448,311,104
2530454,280,104
2530468,307,104
2530474,296,104
2530487,286,104
2530487,315,104
2530507,287,104
2530519,304,104
2530530,310,104
2530537,284,104
2530550,317,104
2530561,294,104
2530570,296,104
2530581,315,104
2530587,284,104
2530602,311,104
2530612,304,104
2530622,293,104
2530632,324,104
2530642,297,104
2530653,316,104
2530664,324,104
2530670,301,104
2530684,333,104
2530695,310,104
2530704,311,104
2530715,331,104
2530721,301,104
2530735,327,104
2530746,317,104
2530755,303,104
2530755,334,104
2530776,307,104
2530787,323,104
2530797,334,104
2530804,308,104
2530818,339,104
2530828,319,104
2530837,319,104
2530848,341,104
2530854,309,104
2530854,335,104
2530879,329,104
2530887,314,104
2530899,342,104
2530904,314,104
2530920,328,104
2530930,340,104
2530937,314,104
2530937,344,104
2530954,328,104
2530971,326,104
2530971,348,104
2530988,323,104
2530988,354,104
2531012,350,104
2531021,328,104
2531033,357,104
2531037,321,104
2531053,330,104
2531064,339,104
2531070,311,104
2531084,339,104
2531087,322,104
2531104,317,104
2531104,331,104
2531121,318,104
2531135,524,102
2531138,659,102
2531156,656,102
2531167,286,102
2531172,244,102
2531187,317,102
2531197,315,102
2531203,281,102
2531212,312,102
2531228,298,102
2531237,294,102
2531249,322,102
2531258,295,102
2531269,321,102
2531280,326,102
2531288,308,102
2531288,343,102
2531310,319,102
2531320,330,102
2531331,346,102
2531337,319,102
2531352,352,102
2531361,345,102
2531371,348,102
2531376,385,102
2531387,370,102
2531403,406,102
2531413,422,102
2531420,414,102
2531434,454,102
2531437,430,102
2531453,427,102
2531464,418,102
2531471,353,102
2531485,351,102
2531487,312,102
2531504,286,102
2531516,306,102
2531521,274,102
2531536,290,102
2531538,293,102
2531553,270,102
2531567,301,102
2531576,277,102
2531587,284,102
2531598,302,102
2531604,274,102
2531618,304,102
2531628,297,102
2531637,290,102
2531649,316,102
2531659,287,102
2531668,303,102
2531680,310,102
2531687,286,102
2531700,318,102
2531711,298,102
2531721,303,102
2531731,321,102
2531737,292,102
2531752,318,102
2531762,308,102
2531771,296,102
2531782,325,102
2531792,297,102
2531803,314,102
2531813,321,102
2531820,300,102
2531834,331,102
2531844,310,102
2531854,314,102
2531865,331,102
2531871,303,102
2531885,329,102
2531895,322,102
2531904,309,102
2531915,339,102
2531926,310,102
2531936,326,102
2531947,332,102
2531953,310,102
2531967,343,102
2531977,320,102
2531987,323,102
2531998,342,102
2532004,313,102
2532004,339,102
2532029,334,102
2532037,318,102
2532049,351,102
2532054,324,102
2532070,337,102
2532077,344,102
2532088,327,102
2532101,367,102
2532104,347,102
2532121,343,102
2532132,364,102
2532137,326,102
2532152,347,102
2532162,342,102
2532171,327,102
2532184,355,102
2532193,329,102
2532203,340,102
2532213,336,102
2532220,365,102
2532233,643,105
2532244,659,105
2532253,607,105
2532265,243,105
2532271,281,105
2532285,340,105
2532296,327,105
2532303,307,105
2532316,337,105
2532327,315,105
2532337,330,105
2532347,342,105
2532354,321,105
2532368,358,105
2532371,345,105
2532387,346,105
2532399,372,105
2532404,345,105
2532420,369,105
2532429,370,105
2532436,355,105
2532450,391,105
2532454,373,105
2532470,392,105
2532481,418,105
2532487,405,105
2532501,449,105
2532511,448,105
2532520,453,105
2532532,482,105
2532542,448,105
2532553,445,105
2532562,409,105
2532571,353,105
2532583,351,105
2532594,304,105
2532604,300,105
2532605,309,105
2532621,279,105
2532635,306,105
2532644,292,105
2532654,282,105
2532663,308,105
2532676,279,105
2532685,302,105
2532696,310,105
2532704,292,105
2532717,326,105
2532726,304,105
2532737,309,105
2532748,327,105
2532754,298,105
2532768,325,105
2532779,314,105
2532787,305,105
2532799,332,105
2532809,304,105
2532819,323,105
2532821,325,105
2532837,302,105
2532851,334,105
2532855,310,105
2532871,314,105
2532880,330,105
2532887,300,105
2532901,327,105
2532904,319,105
2532921,309,105
2532933,336,105
2532943,309,105
2532953,328,105
2532962,330,105
2532972,307,105
2532984,337,105
2532994,316,105
2533004,317,105
2533014,336,105
2533020,307,105
2533035,335,105
2533037,326,105
2533054,315,105
2533066,344,105
2533075,315,105
2533086,329,105
2533096,334,105
2533104,317,105
2533104,356,105
2533121,335,105
2533137,331,105
2533148,349,105
2533154,310,105
2533168,334,105
2533179,326,105
2533188,312,105
2533199,338,105
2533209,312,105
2533220,327,105
2533224,325,105
2533237,332,105
2533250,573,109
2533260,659,109
2533270,649,109
2533282,256,109
2533287,253,109
2533302,328,109
2533312,308,109
2533320,288,109
2533320,319,109
2533343,293,109
2533353,307,109
2533364,320,109
2533372,298,109
2533384,333,109
2533394,318,109
2533404,319,109
2533415,345,109
2533421,317,109
2533435,342,109
2533446,337,109
2533454,323,109
2533466,360,109
2533476,338,109
2533486,359,109
2533488,381,109
2533505,367,109
2533515,414,109
2533521,410,109
2533537,418,109
2533548,451,109
2533554,419,109
2533569,425,109
2533580,386,109
2533587,331,109
2533600,329,109
2533609,278,109
2533620,276,109
2533630,285,109
2533637,256,109
2533650,284,109
2533655,269,109
2533671,265,109
2533681,289,109
2533692,258,109
2533702,280,109
2533712,281,109
2533721,262,109
2533733,297,109
2533738,273,109
2533753,284,109
2533755,297,109
2533772,269,109
2533784,300,109
2533787,286,109
2533803,280,109
2533815,307,109
2533821,278,109
2533821,298,109
2533846,297,109
2533854,277,109
2533863,308,109
2533877,283,109
2533887,291,109
2533897,305,109
2533905,279,109
2533918,308,109
2533927,297,109
2533937,290,109
2533948,316,109
2533954,286,109
2533969,308,109
2533979,309,109
2533987,289,109
2534000,320,109
2534005,297,109
2534020,305,109
2534030,321,109
2534037,292,109
2534052,320,109
2534062,309,109
2534071,301,109
2534082,330,109
2534088,301,109
2534088,322,109
2534113,327,109
2534121,305,109
2534133,338,109
2534143,314,109
2534154,317,109
2534164,336,109
2534173,305,109
2534185,335,109
2534195,323,109
2534204,313,109
2534215,342,109
2534226,313,109
2534236,331,109
2534237,337,109
2534255,313,109
2534267,348,109
2534277,323,109
2534287,326,109
2534297,353,109
2534304,329,109
2534318,359,109
2534325,344,109
2534337,332,109
2534349,352,109
2534359,318,109
2534370,333,109
2534380,340,109
2534387,315,109
2534400,347,109
2534405,326,109
2534421,318,109
2534432,345,109
2534436,476,105
2534451,659,105
2534454,659,105
2534471,329,105
2534483,268,105
2534488,316,105
2534503,318,105
2534513,320,105
2534521,295,105
2534533,327,105
2534544,308,105
2534554,311,105
2534565,336,105
2534574,309,105
2534586,340,105
2534595,336,105
2534604,323,105
2534616,353,105
2534626,325,105
2534636,341,105
2534647,354,105
2534653,338,105
2534667,378,105
2534677,364,105
2534687,371,105
2534699,408,105
2534704,390,105
2534718,429,105
2534729,435,105
2534738,425,106
2534749,458,106
2534760,422,106
2534769,409,106
2534780,382,106
2534787,322,106
2534800,328,106
2534810,295,106
2534820,284,106
2534831,302,106
2534841,269,106
2534841,293,106
2534854,289,106
2534870,271,106
2534882,299,106
2534893,271,106
2534903,281,106
2534914,294,106
2534921,266,106
2534934,297,106
2534938,280,106
2534954,275,106
2534965,302,106
2534973,269,106
2534985,293,106
2534995,292,106
2535004,274,106
2535016,304,106
2535021,277,106
2535037,287,106
2535038,298,106
2535054,271,106
2535068,300,106
2535074,284,106
2535088,280,106
2535099,306,106
2535104,274,106
2535113,296,106
2535129,300,106
2535137,282,106
2535149,314,106
2535159,291,106
2535171,301,106
2535180,318,106
2535187,290,106
2535201,318,106
2535211,307,106
2535220,300,106
2535232,325,106
2535237,296,106
2535237,319,106
2535262,321,106
2535270,300,106
2535283,333,106
2535293,310,106
2535304,318,106
2535314,336,106
2535321,304,106
2535335,335,106
2535344,325,106
2535353,315,106
2535365,344,106
2535375,316,106
2535386,335,106
2535396,339,106
2535403,316,106
2535417,350,106
2535427,327,106
2535437,332,106
2535438,350,106
2535454,320,106
2535464,349,106
2535474,343,106
2535488,331,106
2535488,360,106
2535505,327,106
2535514,342,106
2535521,354,106
2535537,341,106
2535550,370,106
2535553,342,106
2535570,343,106
2535581,354,106
2535587,321,106
2535601,348,106
2535605,339,106
2535621,329,106
2535632,357,106
2535638,327,106
2535638,332,106
2535654,385,106
2535670,606,104
2535684,659,104
2535694,636,104
2535704,229,104
2535714,308,104
2535722,318,104
2535734,333,104
2535737,323,104
2535755,315,104
2535766,345,104
2535775,321,104
2535786,341,104
2535796,349,104
2535804,331,104
2535817,370,104
2535825,350,104
2535837,355,104
2535848,376,104
2535854,345,104
2535854,372,104
2535874,370,104
2535887,360,104
2535887,396,104
2535909,378,104
2535919,403,104
2535921,424,104
2535938,414,104
2535950,459,104
2535961,450,104
2535971,456,104
2535981,474,104
2535987,430,104
2536002,421,104
2536012,379,104
2536022,334,104
2536032,338,104
2536038,296,104
2536053,302,104
2536054,305,104
2536071,276,104
2536084,306,104
2536088,286,104
2536103,282,104
2536115,307,104
2536123,278,104
2536136,306,104
2536137,302,104
2536153,289,104
2536166,321,104
2536176,292,104
2536186,306,104
2536197,318,104
2536204,291,104
2536217,321,104
2536221,307,104
2536237,306,104
2536248,328,104
2536254,295,104
2536268,320,104
2536279,317,104
2536288,299,104
2536288,328,104
2536305,302,104
2536314,316,104
2536330,329,104
2536338,302,104
2536350,334,104
2536361,317,104
2536371,313,104
2536374,336,104
2536388,307,104
2536388,329,104
2536412,327,104
2536420,308,104
2536433,337,104
2536438,313,104
2536453,324,104
2536464,336,104
2536471,307,104
2536476,337,104
2536487,323,104
2536504,318,104
2536513,344,104
2536521,316,104
2536536,338,104
2536546,338,104
2536554,316,104
2536567,346,104
2536577,330,104
2536587,346,104
2536597,360,104
2536604,331,104
2536617,356,104
2536628,332,104
2536638,323,104
2536638,348,104
2536654,319,104
2536669,340,104
2536679,340,104
2536687,321,104
2536700,337,104
2536704,373,104
2536720,626,107
2536730,659,107
2536737,601,107
2536751,239,107
2536761,297,107
2536771,320,107
2536782,332,107
2536787,302,107
2536803,323,107
2536805,326,107
2536821,308,107
2536832,340,107
2536844,321,107
2536854,332,107
2536864,350,107
2536871,325,107
2536885,356,107
2536894,345,107
2536904,338,107
2536915,366,107
2536925,338,107
2536936,361,107
2536946,369,107
2536954,358,107
2536967,404,107
2536977,396,107
2536987,414,107
2536988,447,107
2537004,430,107
2537018,461,107
2537029,448,107
2537037,418,107
2537049,410,107
2537054,341,107
2537069,327,107
2537080,310,107
2537087,273,107
2537101,298,107
2537104,274,107
2537120,278,107
2537131,296,107
2537137,267,107
2537151,294,107
2537155,285,107
2537171,275,107
2537182,307,107
2537193,278,107
2537203,298,107
2537212,304,107
2537222,283,107
2537234,312,107
2537244,288,107
2537254,290,107
2537264,308,107
2537270,276,107
2537284,303,107
2537295,295,107
2537305,285,107
2537305,313,107
2537321,285,107
2537336,300,107
2537346,305,107
2537354,279,107
2537366,309,107
2537377,290,107
2537387,291,107
2537398,310,107
2537404,280,107
2537419,308,107
2537429,302,107
2537437,289,107
2537449,319,107
2537460,291,107
2537469,309,107
2537480,317,107
2537487,291,107
2537500,321,107
2537511,300,107
2537521,302,107
2537521,324,107
2537537,294,107
2537552,320,107
2537562,314,107
2537571,299,107
2537582,331,107
2537593,302,107
2537603,316,107
2537614,325,107
2537621,300,107
2537634,332,107
2537644,313,107
2537654,311,107
2537654,335,107
2537670,305,107
2537685,329,107
2537696,325,107
2537704,309,107
2537715,340,107
2537725,311,107
2537737,324,107
2537747,337,107
2537754,309,107
2537766,338,107
2537777,328,107
2537787,333,107
2537787,358,107
2537808,323,107
2537819,345,107
2537829,335,107
2537838,313,107
2537849,340,107
2537860,313,107
2537870,325,107
2537880,338,107
2537887,312,107
2537901,333,107
2537912,335,107
2537921,515,105
2537932,659,105
2537937,658,105
2537952,302,105
2537962,269,105
2537970,314,105
2537983,330,105
2537988,297,105
2538004,307,105
2538013,319,105
2538023,292,105
2538023,326,105
2538037,315,105
2538054,316,105
2538065,343,105
2538075,315,105
2538085,339,105
2538088,338,105
2538103,321,105
2538117,354,105
2538126,334,105
2538137,349,105
2538147,368,105
2538153,351,105
2538168,393,105
2538176,387,105
2538187,396,105
2538199,436,105
2538204,418,105
2538219,450,105
2538230,452,105
2538238,422,105
2538251,430,105
2538254,368,105
2538270,344,105
2538281,333,105
2538288,288,105
2538301,309,105
2538311,290,105
2538320,281,105
2538332,306,105
2538342,275,105
2538352,296,105
2538363,297,105
2538371,277,105
2538376,308,105
2538387,285,105
2538404,292,105
2538414,307,105
2538421,278,105
2538435,306,105
2538445,293,105
2538454,285,105
2538465,313,105
2538475,285,105
2538485,308,105
2538487,307,105
2538503,284,105
2538517,315,105
2538521,292,105
2538537,297,105
2538547,313,105
2538554,282,105
2538567,310,105
2538578,301,105
2538588,292,105
2538599,320,105
2538604,291,105
2538620,311,105
2538630,314,105
2538637,291,105
2538650,324,105
2538654,298,105
2538670,304,105
2538682,320,105
2538687,287,105
2538702,314,105
2538712,303,105
2538721,290,105
2538733,319,105
2538743,291,105
2538753,311,105
2538763,317,105
2538771,295,105
2538783,326,105
2538794,302,105
2538804,307,105
2538815,326,105
2538824,296,105
2538835,321,105
2538845,309,105
2538854,299,105
2538866,328,105
2538876,297,105
2538886,314,105
2538897,320,105
2538904,301,105
2538904,331,105
2538921,311,105
2538937,314,105
2538948,333,105
2538955,301,105
2538955,330,105
2538978,321,105
2538987,318,105
2538999,351,105
2539010,321,105
2539019,338,105
2539020,339,105
2539037,308,105
2539051,339,105
2539061,319,105
2539071,323,105
2539082,342,105
2539087,313,105
2539102,336,105
2539104,320,105
2539121,410,102
2539133,658,102
2539137,659,102
2539153,492,102
2539164,231,102
2539172,300,102
2539178,338,102
2539195,303,102
2539205,305,102
2539213,327,102
2539220,299,102
2539235,328,102
2539238,325,102
2539254,317,102
2539267,351,102
2539277,328,102
2539287,346,102
2539297,358,102
2539304,334,102
2539317,363,102
2539328,346,102
2539338,352,102
2539349,378,102
2539354,354,102
2539354,391,102
2539379,398,102
2539387,398,102
2539400,444,102
2539410,428,102
2539421,449,102
2539421,464,102
2539437,437,102
2539451,450,102
2539461,395,102
2539471,360,102
2539478,352,102
2539488,301,102
2539502,313,102
2539512,302,102
2539520,282,102
2539533,312,102
2539543,285,102
2539554,297,102
2539564,308,102
2539570,284,102
2539584,314,102
2539595,299,102
2539604,300,102
2539615,324,102
2539623,299,102
2539623,323,102
2539637,316,102
2539654,303,102
2539664,331,102
2539677,303,102
2539687,317,102
2539688,329,102
2539705,305,102
2539718,332,102
2539727,317,102
2539738,313,102
2539738,335,102
2539759,306,102
2539769,329,102
2539780,326,102
2539787,311,102
2539800,345,102
2539804,318,102
2539821,329,102
2539830,343,102
2539837,316,102
2539851,347,102
2539862,331,102
2539870,325,102
2539882,348,102
2539887,318,102
2539902,340,102
2539913,338,102
2539921,321,102
2539934,353,102
2539937,327,102
2539954,339,102
2539963,350,102
2539971,324,102
2539984,353,102
2539988,340,102
2540004,333,102
2540016,358,102
2540021,327,102
2540036,346,102
2540046,348,102
2540054,338,102
2540066,372,102
2540078,343,102
2540088,352,102
2540098,357,102
2540104,326,102
2540117,353,102
2540128,338,102
2540138,331,102
2540149,355,102
2540154,327,102
2540170,337,102
2540178,356,102
2540188,528,104
2540200,659,104
2540211,658,104
2540220,284,104
2540232,282,104
2540237,317,104
2540252,337,104
2540262,318,104
2540271,311,104
2540282,339,104
2540287,309,104
2540303,332,104
2540313,335,104
2540320,321,104
2540334,356,104
2540344,338,104
2540354,346,104
2540365,364,104
2540371,337,104
2540378,365,104
2540395,355,104
2540403,350,104
2540416,382,104
2540421,358,104
2540436,390,104
2540447,405,104
2540454,401,104
2540468,447,104
2540476,434,104
2540487,447,104
2540498,464,104
2540504,421,104
2540518,421,104
2540523,371,104
2540538,328,104
2540550,327,104
2540554,280,104
2540569,292,104
2540580,292,104
2540587,270,104
2540601,299,104
2540612,275,104
2540620,280,104
2540631,295,104
2540637,266,104
2540652,294,104
2540663,283,104
2540670,275,104
2540683,305,104
2540693,277,104
2540704,295,104
2540713,297,104
2540721,274,104
2540734,305,104
2540737,281,104
2540754,285,104
2540765,305,104
2540771,275,104
2540786,302,104
2540796,292,104
2540804,279,104
2540816,307,104
2540827,276,104
2540837,293,104
2540847,300,104
2540854,275,104
2540867,306,104
2540878,286,104
2540887,289,104
2540898,311,104
2540904,284,104
2540919,313,104
2540929,304,104
2540937,292,104
2540949,320,104
2540960,292,104
2540970,306,104
2540981,310,104
2540987,284,104
2541001,316,104
2541004,295,104
2541021,298,104
2541030,321,104
2541037,292,104
2541053,321,104
2541063,311,104
2541071,298,104
2541082,326,104
2541093,299,104
2541103,314,104
2541114,322,104
2541123,297,104
2541135,329,104
2541137,310,104
2541155,311,104
2541165,332,104
2541175,303,104
2541186,328,104
2541196,322,104
2541204,310,104
2541217,340,104
2541227,311,104
2541238,326,104
2541247,332,104
2541254,308,104
2541268,351,104
2541278,336,104
2541288,337,104
2541298,356,104
2541309,320,104
2541319,339,104
2541321,329,104
2541336,313,104
2541351,342,104
2541354,314,104
2541370,329,104
2541381,337,104
2541390,300,104
2541401,416,104
2541412,652,104
2541421,659,104
2541433,544,104
2541442,202,104
2541453,316,104
2541462,322,104
2541471,292,104
2541483,321,104
2541487,294,104
2541504,309,104
2541515,319,104
2541521,297,104
2541535,334,104
2541545,320,104
2541555,322,104
2541555,345,104
2541570,316,104
2541586,342,104
2541597,340,104
2541604,329,104
2541612,364,104
2541627,340,104
2541637,360,104
2541648,380,104
2541658,364,104
2541669,410,104
2541679,406,104
2541687,417,104
2541699,449,104
2541704,423,104
2541719,445,104
2541724,427,104
2541737,379,104
2541737,375,104
2541761,318,104
2541771,309,104
2541781,308,104
2541788,273,104
2541788,302,104
2541812,283,104
2541820,282,104
2541832,303,104
2541843,270,104
2541853,295,104
2541863,293,104
2541870,277,104
2541883,310,104
2541894,285,104
2541904,296,104
2541915,307,104
2541922,280,104
2541935,311,104
2541938,294,104
2541955,292,104
2541964,316,104
2541971,287,104
2541986,309,104
2541997,306,104
2542004,289,104
2542018,320,104
2542028,292,104
2542037,302,104
2542048,315,104
2542054,289,104
2542069,321,104
2542079,307,104
2542087,304,104
2542100,332,104
2542110,302,104
2542121,325,104
2542130,324,104
2542137,305,104
2542151,337,104
2542154,310,104
2542170,319,104
2542182,332,104
2542187,303,104
2542202,331,104
2542204,317,104
2542220,310,104
2542233,338,104
2542243,309,104
2542254,333,104
2542254,334,104
2542270,315,104
2542284,344,104
2542295,319,104
2542304,326,104
2542313,339,104
2542321,309,104
2542321,339,104
2542338,328,104
2542354,322,104
2542364,349,104
2542377,319,104
2542387,341,104
2542398,341,104
2542404,321,104
2542418,352,104
2542428,327,104
2542438,334,104
2542448,349,104
2542454,320,104
2542469,350,104
2542478,336,104
2542488,327,104
2542488,353,104
2542504,328,104
2542520,356,104
2542531,357,104
2542537,335,104
2542551,363,104
2542561,328,104
2542570,332,104
2542582,345,104
2542592,317,104
2542602,346,104
2542613,333,104
2542621,324,104
2542634,340,104
2542643,348,104
2542654,584,101
2542664,659,101
2542672,651,101
2542685,271,101
2542696,278,101
2542705,329,101
2542705,328,101
2542722,295,101
2542731,324,101
2542746,314,101
2542754,307,101
2542767,336,101
2542778,309,101
2542787,335,101
2542798,340,101
2542804,320,101
2542817,353,101
2542826,330,101
2542837,337,101
2542849,356,101
2542859,330,101
2542869,365,101
2542880,363,101
2542887,361,101
2542900,398,101
2542911,380,101
2542921,413,101
2542931,429,101
2542937,415,101
2542952,454,101
2542961,430,101
2542971,425,101
2542983,416,101
2542993,353,101
2543002,350,101
2543013,316,101
2543020,291,101
2543034,310,101
2543043,276,101
2543053,293,101
2543064,296,101
2543071,272,101
2543085,302,101
2543095,279,101
2543103,285,101
2543116,303,101
2543126,277,101
2543136,306,101
2543147,297,101
2543154,287,101
2543154,315,101
2543178,286,101
2543187,303,101
2543187,309,101
2543203,284,101
2543219,317,101
2543220,295,101
2543237,297,101
2543249,316,101
2543260,285,101
2543270,311,101
2543280,302,101
2543288,290,101
2543301,318,101
2543303,289,101
2543321,308,101
2543331,316,101
2543336,294,101
2543352,328,101
2543362,308,101
2543370,312,101
2543383,333,101
2543393,302,101
2543403,326,101
2543414,316,101
2543421,302,101
2543421,329,101
2543445,299,101
2543455,315,101
2543463,322,101
2543470,300,101
2543485,333,101
2543496,313,101
2543504,318,101
2543517,337,101
2543526,307,101
2543537,334,101
2543547,327,101
2543554,314,101
2543568,342,101
2543578,313,101
2543587,328,101
2543598,336,101
2543604,310,101
2543619,342,101
2543629,324,101
2543637,326,101
2543650,347,101
2543660,317,101
2543670,344,101
2543681,336,101
2543687,323,101
2543701,353,101
2543711,324,101
2543721,340,101
2543732,348,101
2543737,322,101
2543752,353,101
2543763,340,101
2543771,347,101
2543783,368,101
2543788,335,101
2543804,357,101
2543815,341,101
2543821,323,101
2543834,350,101
2543845,323,101
2543854,336,101
2543865,348,101
2543875,323,101
2543886,341,101
2543888,365,101
2543904,584,100
2543916,660,100
2543921,642,100
2543937,250,100
2543947,295,100
2543953,318,100
2543968,333,100
2543976,303,100
2543988,316,100
2543988,327,100
2544004,303,100
2544019,336,100
2544030,321,100
2544037,325,100
2544050,351,100
2544060,322,100
2544071,348,100
2544080,344,100
2544087,329,100
2544101,361,100
2544104,337,100
2544121,356,100
2544131,374,100
2544137,356,100
2544153,396,100
2544163,390,100
2544170,401,100
2544184,437,100
2544194,418,100
2544204,448,100
2544214,443,100
2544221,416,100
2544234,418,100
2544238,355,100
2544254,337,100
2544266,325,100
2544271,283,100
2544287,306,100
2544296,284,100
2544304,280,100
2544304,303,100
2544321,271,100
2544337,293,100
2544348,291,100
2544354,275,100
2544368,307,100
2544379,282,100
2544388,294,100
2544388,307,100
2544405,279,100
2544420,309,100
2544430,294,100
2544437,291,100
2544450,314,100
2544461,283,100
2544470,306,100
2544481,304,100
2544491,288,100
2544502,317,100
2544512,290,100
2544521,299,100
2544533,311,100
2544537,283,100
2544553,314,100
2544557,297,100
2544570,293,100
2544584,318,100
2544594,291,100
2544603,317,100
2544615,316,100
2544623,300,100
2544623,331,100
2544637,305,100
2544654,314,100
2544666,326,100
