Timestamp,ECGValue,BPM
2558463,310,109
2558471,306,109
2558475,291,109
2558487,323,109
2558504,299,109
2558515,313,109
2558520,324,109
2558535,298,109
2558545,327,109
2558554,309,109
2558566,305,109
2558575,327,109
2558587,300,109
2558596,322,109
2558604,321,109
2558617,306,109
2558627,335,109
2558637,311,109
2558648,324,109
2558654,335,109
2558668,309,109
2558678,340,109
2558687,322,109
2558696,319,109
2558703,340,109
2558720,310,109
2558722,334,109
2558737,332,109
2558751,316,109
2558755,347,109
2558771,322,109
2558781,336,109
2558787,347,109
2558802,320,109
2558813,348,109
2558821,332,109
2558833,326,109
2558843,348,109
2558853,318,109
2558864,342,109
2558871,341,109
2558884,324,109
2558887,352,109
2558904,336,109
2558913,351,109
2558920,363,109
2558935,334,109
2558937,360,109
2558954,337,109
2558967,329,109
2558977,350,109
2558987,321,109
2558997,343,109
2559005,342,109
2559005,324,109
2559028,344,109
2559037,353,109
2559048,573,104
2559054,659,104
2559068,654,104
2559079,272,104
2559087,284,104
2559100,326,104
2559111,331,104
2559121,298,104
2559126,322,104
2559136,321,104
2559151,303,104
2559162,337,104
2559171,317,104
2559171,329,104
2559187,347,104
2559202,320,104
2559213,350,104
2559221,338,104
2559221,331,104
2559243,358,104
2559254,335,104
2559264,362,104
2559271,367,104
2559271,357,104
2559289,396,104
2559304,382,104
2559315,402,104
2559321,429,104
2559336,413,104
2559346,447,104
2559354,433,104
2559367,418,104
2559377,417,104
2559387,351,104
2559398,341,104
2559404,315,104
2559418,278,104
2559428,301,104
2559437,270,104
2559449,276,104
2559459,288,104
2559469,258,104
2559480,285,104
2559488,272,104
2559498,265,104
2559511,290,104
2559521,263,104
2559521,283,104
2559538,286,104
2559538,267,104
2559561,296,104
2559570,272,104
2559582,280,104
2559593,293,104
2559603,266,104
2559614,295,104
2559620,282,104
2559634,271,104
2559643,298,104
2559654,272,104
2559664,291,104
2559673,292,104
2559673,272,104
2559687,301,104
2559704,280,104
2559716,288,104
2559726,305,104
2559736,279,104
2559747,311,104
2559753,303,104
2559767,296,104
2559777,323,104
2559787,291,104
2559797,311,104
2559803,313,104
2559818,294,104
2559828,324,104
2559837,304,104
2559850,313,104
2559859,328,104
2559869,303,104
2559880,332,104
2559887,321,104
2559901,313,104
2559905,340,104
2559920,312,104
2559931,332,104
2559937,334,104
2559952,314,104
2559955,347,104
2559971,325,104
2559982,328,104
2559988,346,104
2560004,319,104
2560012,345,104
2560021,335,104
2560034,329,104
2560037,354,104
2560055,326,104
2560065,346,104
2560070,358,104
2560085,344,104
2560095,372,104
2560104,347,104
2560104,346,104
2560126,354,104
2560137,323,104
2560147,352,104
2560153,340,104
2560167,331,104
2560178,356,104
2560188,322,104
2560199,331,104
2560204,442,104
2560218,658,104
2560224,659,104
2560238,481,104
2560250,219,104
2560259,331,104
2560270,314,104
2560280,326,104
2560287,314,104
2560301,309,104
2560311,340,104
2560320,314,104
2560331,333,104
2560337,341,104
2560337,326,104
2560363,361,104
2560371,342,104
2560383,354,104
2560389,370,104
2560403,344,104
2560414,374,104
2560422,366,104
2560422,360,104
2560437,394,104
2560455,378,104
2560465,405,104
2560472,422,104
2560485,420,104
2560496,461,104
2560504,450,104
2560517,460,103
2560527,474,103
2560537,428,103
2560547,421,103
2560554,373,103
2560567,334,103
2560572,338,103
2560587,299,103
2560599,308,103
2560604,308,103
2560620,285,103
2560629,311,103
2560637,287,103
2560637,290,103
2560654,309,103
2560670,283,103
2560681,314,103
2560688,307,103
2560701,299,103
2560712,329,103
2560720,303,103
2560732,318,103
2560737,325,103
2560753,303,103
2560754,333,103
2560771,313,103
2560783,317,103
2560794,334,103
2560804,306,103
2560814,328,103
2560820,319,103
2560835,306,103
2560845,333,103
2560854,304,103
2560866,320,103
2560874,327,103
2560886,305,103
2560896,338,103
2560905,320,103
2560917,323,103
2560925,339,103
2560937,311,103
2560938,337,103
2560954,327,103
2560969,314,103
2560971,341,103
2560987,313,103
2560999,327,103
2561009,333,103
2561020,311,103
2561030,342,103
2561037,320,103
2561050,327,103
2561060,356,103
2561070,331,103
2561081,352,103
2561087,344,103
2561101,324,103
2561112,346,103
2561121,314,103
2561132,330,103
2561138,337,103
2561153,314,103
2561163,345,103
2561173,319,103
2561173,324,103
2561188,498,108
2561204,659,108
2561215,659,108
2561221,351,108
2561235,230,108
2561246,341,108
2561255,309,108
2561255,315,108
2561276,323,108
2561286,300,108
2561297,332,108
2561304,316,108
2561317,318,108
2561328,342,108
2561337,317,108
2561348,346,108
2561354,340,108
2561369,329,108
2561379,358,108
2561387,333,108
2561399,349,108
2561410,359,108
2561420,339,108
2561430,378,108
2561438,368,108
2561438,380,108
2561461,416,108
2561471,404,108
2561481,441,108
2561487,443,108
2561502,431,108
2561512,450,108
2561520,393,108
2561532,367,108
2561543,341,108
2561554,290,108
2561564,302,108
2561573,276,108
2561573,272,108
2561594,291,108
2561605,260,108
2561615,285,108
2561620,277,108
2561636,261,108
2561646,290,108
2561654,263,108
2561666,277,108
2561677,287,108
2561687,265,108
2561697,295,108
2561704,278,108
2561717,279,108
2561722,300,108
2561737,269,108
2561748,293,108
2561755,289,108
2561755,275,108
2561780,305,108
2561787,280,108
2561800,292,108
2561804,302,108
2561820,277,108
2561830,308,108
2561837,288,108
2561851,285,108
2561861,308,108
2561871,277,108
2561881,301,108
2561887,298,108
2561902,283,108
2561913,314,108
2561921,289,108
2561933,302,108
2561944,311,108
2561954,285,108
2561963,315,108
2561971,298,108
2561985,294,108
2561988,317,108
2562004,287,108
2562016,313,108
2562021,310,108
2562035,295,108
2562046,327,108
2562054,303,108
2562067,315,108
2562077,327,108
2562087,300,108
2562098,329,108
2562104,312,108
2562118,309,108
2562128,334,108
2562137,303,108
2562149,327,108
2562154,325,108
2562170,309,108
2562171,342,108
2562187,317,108
2562199,327,108
2562204,338,108
2562221,313,108
2562231,340,108
2562237,329,108
2562237,334,108
2562262,359,108
2562271,325,108
2562271,348,108
2562293,338,108
2562302,314,108
2562313,343,108
2562321,318,108
2562333,330,108
2562344,341,108
2562354,316,108
2562364,338,108
2562370,326,108
2562385,471,105
2562395,659,105
2562404,659,105
2562404,375,105
2562422,247,105
2562435,313,105
2562447,333,105
2562454,299,105
2562466,310,105
2562477,322,105
2562487,296,105
2562498,328,105
2562504,316,105
2562518,316,105
2562528,345,105
2562538,315,105
2562549,338,105
2562559,338,105
2562570,323,105
2562580,356,105
2562588,338,105
2562601,351,105
2562611,366,105
2562621,347,105
2562631,389,105
2562637,386,105
2562652,393,105
2562662,435,105
2562670,418,105
2562683,447,105
2562692,448,105
2562704,425,105
2562713,433,105
2562721,374,105
2562734,350,105
2562738,335,105
2562755,288,105
2562764,307,105
2562770,289,105
2562786,281,105
2562788,305,105
2562804,276,105
2562816,297,105
2562821,297,105
2562837,277,105
2562847,307,105
2562853,284,105
2562867,292,105
2562878,307,105
2562888,279,105
2562899,306,105
2562903,293,105
2562918,286,105
2562921,310,105
2562937,282,105
2562949,300,105
2562960,301,105
2562970,280,105
2562981,310,105
2562987,284,105
2563001,292,105
2563011,306,105
2563021,277,105
2563033,307,105
2563042,293,105
2563052,286,105
2563062,311,105
2563070,284,105
2563083,305,105
2563093,307,105
2563103,288,105
2563105,318,105
2563121,293,105
2563135,299,105
2563138,314,105
2563154,285,105
2563164,313,105
2563172,301,105
2563185,293,105
2563196,319,105
2563204,292,105
2563216,312,105
2563226,315,105
2563226,294,105
2563247,326,105
2563254,304,105
2563268,310,105
2563278,325,105
2563287,301,105
2563299,328,105
2563304,320,105
2563319,310,105
2563329,335,105
2563337,309,105
2563337,328,105
2563353,331,105
2563370,311,105
2563381,348,105
2563389,322,105
2563401,328,105
2563412,348,105
2563421,318,105
2563432,344,105
2563437,337,105
2563453,338,105
2563462,370,105
2563471,338,105
2563476,356,105
2563489,350,105
2563504,323,105
2563514,351,105
2563521,326,105
2563534,332,105
2563545,348,105
2563554,321,105
2563565,342,105
2563571,333,105
2563587,479,103
2563596,659,103
2563604,659,103
2563617,371,103
2563627,254,103
2563637,314,103
2563637,339,103
2563653,311,103
2563669,318,103
2563671,335,103
2563687,311,103
2563699,339,103
2563709,332,103
2563720,324,103
2563727,356,103
2563737,332,103
2563750,356,103
2563755,364,103
2563771,341,103
2563781,372,103
2563788,351,103
2563802,359,103
2563805,382,103
2563821,361,103
2563832,396,103
2563837,400,103
2563853,403,103
2563863,444,103
2563870,431,103
2563884,457,103
2563888,466,103
2563904,438,103
2563914,447,103
2563920,387,103
2563920,353,103
2563946,342,103
2563954,289,103
2563962,304,103
2563976,291,103
2563986,279,103
2563988,307,103
2564005,276,103
2564012,290,103
2564021,295,103
2564037,274,103
2564048,306,103
2564053,286,103
2564068,291,103
2564079,315,103
2564087,286,103
2564099,316,103
2564110,308,103
2564120,298,103
2564130,329,103
2564137,302,103
2564150,317,103
2564155,325,103
2564171,302,103
2564182,330,103
2564187,311,103
2564202,313,103
2564212,332,103
2564221,303,103
2564232,329,103
2564243,323,103
2564254,312,103
2564264,343,103
2564271,318,103
2564283,334,103
2564294,341,103
2564304,317,103
2564314,348,103
2564325,327,103
2564335,327,103
2564346,347,103
2564354,317,103
2564366,340,103
2564376,334,103
2564386,320,103
2564397,348,103
2564404,322,103
2564404,336,103
2564420,343,103
2564438,324,103
2564438,363,103
2564454,347,103
2564469,343,103
2564479,364,103
2564487,324,103
2564499,345,103
2564504,336,103
2564520,323,103
2564531,350,103
2564537,323,103
2564551,339,103
2564561,338,103
2564570,338,103
2564582,569,108
2564588,659,108
2564602,657,108
2564604,291,108
2564620,259,108
2564634,343,108
2564643,328,108
2564653,308,108
2564664,337,108
2564671,313,108
2564684,327,108
2564695,340,108
2564705,317,108
2564713,352,108
2564721,339,108
2564721,342,108
2564738,366,108
2564754,340,108
2564767,367,108
2564771,362,108
2564788,347,108
2564797,380,108
2564804,360,108
2564817,377,108
2564828,400,108
2564837,387,108
2564849,433,108
2564855,429,108
2564855,441,108
2564879,472,108
2564888,441,108
2564900,448,108
2564910,411,108
2564920,354,108
2564931,349,108
2564937,297,108
2564951,293,108
2564962,296,108
2564971,266,108
2564976,296,108
2564987,279,108
2565003,274,108
2565013,296,108
2565020,265,108
2565020,289,108
2565044,285,108
2565054,270,108
2565065,303,108
2565071,278,108
2565085,292,108
2565088,304,108
2565104,276,108
2565116,305,108
2565121,288,108
2565121,282,108
2565138,305,108
2565157,275,108
2565167,298,108
2565177,298,108
2565187,281,108
2565187,311,108
2565204,282,108
2565212,291,108
2565228,303,108
2565238,276,108
2565249,308,108
2565254,292,108
2565269,287,108
2565271,315,108
2565288,284,108
2565288,308,108
2565304,308,108
2565320,289,108
2565331,320,108
2565338,295,108
2565352,305,108
2565362,316,108
2565371,285,108
2565371,314,108
2565388,299,108
2565403,294,108
2565412,319,108
2565421,292,108
2565434,315,108
2565438,315,108
2565453,297,108
2565464,328,108
2565471,303,108
2565471,311,108
2565488,325,108
2565505,297,108
2565513,327,108
2565521,312,108
2565536,310,108
2565547,337,108
2565554,304,108
2565563,327,108
2565571,326,108
2565587,307,108
2565599,348,108
2565604,329,108
2565619,335,108
2565629,346,108
2565637,311,108
2565650,336,108
2565660,319,108
2565670,311,108
2565680,338,108
2565687,309,108
2565701,333,108
2565711,333,108
2565721,301,108
2565732,391,108
2565737,603,108
2565752,659,108
2565754,621,108
2565770,209,108
2565782,306,108
2565793,319,108
2565803,296,108
2565814,321,108
2565821,291,108
2565834,312,108
2565845,316,108
2565854,298,108
2565865,335,108
2565870,314,108
2565885,324,108
2565896,341,108
2565905,314,108
2565916,345,108
2565924,337,108
2565937,331,108
2565947,361,108
2565954,335,108
2565968,365,108
2565978,376,108
2565988,365,108
2565988,411,108
2566004,402,108
2566019,423,108
2566029,449,108
2566037,426,108
2566050,454,108
2566061,427,108
2566070,389,108
2566081,381,108
2566087,322,108
2566101,318,108
2566111,308,108
2566120,279,108
2566131,308,108
2566138,282,108
2566153,289,108
2566163,306,108
2566171,276,108
2566183,304,108
2566194,292,108
2566204,283,108
2566205,312,108
2566221,282,108
2566235,302,108
2566245,304,108
2566254,280,108
2566266,311,108
2566271,289,108
2566271,293,108
2566296,314,108
2566304,284,108
2566317,313,108
2566326,301,108
2566337,291,108
2566347,319,108
2566353,288,108
2566368,306,108
2566377,310,108
2566388,288,108
2566388,320,108
2566404,299,108
2566420,304,108
2566430,325,108
2566437,294,108
2566450,322,108
2566460,313,108
2566471,300,108
2566482,330,108
2566487,301,108
2566502,317,108
2566511,321,108
2566520,298,108
2566523,331,108
2566537,309,108
2566553,313,108
2566563,334,108
2566571,304,108
2566583,333,108
2566588,324,108
2566604,311,108
2566605,339,108
2566622,307,108
2566635,324,108
2566646,330,108
2566654,305,108
2566666,335,108
2566671,312,108
2566686,313,108
2566687,333,108
2566705,302,108
2566705,330,108
2566728,320,108
2566737,309,108
2566747,337,108
2566754,307,108
2566769,323,108
2566779,328,108
2566787,302,108
2566799,330,108
2566809,314,108
2566819,324,108
2566830,346,108
2566837,314,108
2566851,339,108
2566854,324,108
2566870,303,108
2566881,332,108
2566888,303,108
2566901,318,108
2566912,326,108
2566920,302,108
2566933,328,108
2566942,314,108
2566954,469,104
2566963,659,104
2566971,658,104
2566984,344,104
2566994,237,104
2567004,304,104
2567015,325,104
2567025,288,104
2567035,304,104
2567046,314,104
2567054,292,104
2567054,325,104
2567077,310,104
2567087,313,104
2567097,338,104
2567105,314,104
2567112,344,104
2567128,339,104
2567137,327,104
2567149,358,104
2567154,333,104
2567169,353,104
2567178,366,104
2567187,351,104
2567199,393,104
2567209,387,104
2567220,402,104
2567231,439,104
2567238,420,104
2567238,455,104
2567255,456,104
2567271,435,104
2567282,441,104
2567287,378,104
2567302,357,104
2567312,339,104
2567321,295,104
2567321,313,104
2567343,292,104
2567353,285,104
2567363,308,104
2567371,279,104
2567371,302,104
2567387,300,104
2567404,281,104
2567415,313,104
2567422,288,104
2567435,298,104
2567446,312,104
2567455,288,104
2567467,320,104
2567474,302,104
2567487,301,104
2567497,325,104
2567504,298,104
2567518,323,104
2567521,318,104
2567537,298,104
2567549,329,104
2567557,303,104
2567569,310,104
2567570,323,104
2567587,296,104
2567600,328,104
2567610,314,104
2567621,310,104
2567630,336,104
2567638,311,104
2567638,334,104
2567654,333,104
2567671,314,104
2567683,344,104
2567688,319,104
2567703,329,104
2567713,341,104
2567721,316,104
2567725,342,104
2567744,325,104
2567753,322,104
2567763,346,104
2567771,318,104
2567771,339,104
2567795,338,104
2567804,325,104
2567812,356,104
2567821,330,104
2567837,339,104
2567847,359,104
2567854,343,104
2567866,369,104
2567877,353,104
2567888,342,104
2567898,361,104
2567904,328,104
2567919,348,104
2567928,349,104
2567937,329,104
2567949,360,104
2567959,334,104
2567969,330,104
2567979,411,107
2567987,642,107
2568001,660,107
2568010,600,107
2568021,219,107
2568031,325,107
2568037,322,107
2568052,333,107
2568063,332,107
2568071,310,107
2568082,344,107
2568088,322,107
2568103,330,107
2568114,350,107
2568121,328,107
2568134,361,107
2568137,353,107
2568153,347,107
2568164,377,107
2568171,349,107
2568185,368,107
2568196,373,107
2568205,357,107
2568205,392,107
2568221,377,107
2568237,395,107
2568247,426,107
2568254,413,107
2568267,456,107
2568278,454,107
2568287,452,107
2568298,475,107
2568305,424,107
2568305,406,107
2568329,371,107
2568337,319,107
2568349,326,107
2568360,290,107
2568371,290,107
2568379,304,107
2568388,275,107
2568401,302,107
2568411,290,107
2568421,279,107
2568432,307,107
2568442,279,107
2568452,298,107
2568463,305,107
2568471,285,107
2568483,317,107
2568493,296,107
2568503,300,107
2568514,316,107
2568520,285,107
2568534,311,107
2568544,301,107
2568554,288,107
2568554,318,107
2568570,289,107
2568585,305,107
2568587,310,107
2568606,289,107
2568615,319,107
2568626,295,107
2568636,298,107
2568647,316,107
2568655,285,107
2568655,313,107
2568678,305,107
2568688,293,107
2568698,322,107
2568709,294,107
2568719,311,107
2568729,318,107
2568737,294,107
2568749,326,107
2568760,302,107
2568770,303,107
2568781,322,107
2568787,293,107
2568801,320,107
2568811,313,107
2568820,302,107
2568832,332,107
2568838,302,107
2568853,318,107
2568863,325,107
2568871,302,107
2568883,331,107
2568894,310,107
2568903,312,107
2568914,332,107
2568921,302,107
2568921,329,107
2568945,323,107
2568954,307,107
2568965,338,107
2568975,320,107
2568986,339,107
2568996,343,107
2569006,316,107
2569017,342,107
2569027,316,107
2569037,315,107
2569047,335,107
2569054,305,107
2569054,330,107
2569071,325,107
2569087,307,107
2569099,327,107
2569106,406,108
2569119,657,108
2569129,659,108
2569137,446,108
2569150,228,108
2569161,300,108
2569171,301,108
2569180,310,108
2569187,281,108
2569201,307,108
2569212,304,108
2569221,290,108
2569233,321,108
2569238,299,108
2569253,317,108
2569262,330,108
2569271,306,108
2569271,340,108
2569294,323,108
2569303,325,108
2569314,348,108
2569321,319,108
2569335,352,108
2569338,355,108
2569355,346,108
2569365,390,108
2569371,378,108
2569371,405,108
2569397,430,108
2569406,413,108
2569417,448,108
2569427,426,108
2569437,404,108
2569448,393,108
2569454,327,108
2569469,323,108
2569479,300,108
2569488,273,108
2569488,300,108
2569510,272,108
2569519,282,108
2569530,295,108
2569538,267,108
2569538,297,108
2569560,279,108
2569571,277,108
2569571,301,108
2569588,271,108
2569602,294,108
2569612,293,108
2569622,274,108
2569622,305,108
2569638,278,108
2569654,289,108
2569663,303,108
2569671,276,108
2569683,306,108
2569695,291,108
2569704,286,108
2569715,310,108
2569721,279,108
2569725,300,108
2569746,300,108
2569754,281,108
2569766,314,108
2569771,290,108
2569787,302,108
2569788,316,108
2569807,290,108
2569817,322,108
2569821,308,108
2569837,303,108
2569848,329,108
2569853,297,108
2569869,319,108
2569879,318,108
2569888,297,108
2569888,329,108
2569910,302,108
2569920,310,108
2569930,328,108
2569937,298,108
2569950,330,108
2569961,317,108
2569971,311,108
2569982,338,108
2569992,307,108
2570003,327,108
2570012,327,108
2570022,305,108
2570022,337,108
2570043,312,108
2570053,319,108
2570064,336,108
2570070,309,108
2570084,337,108
2570095,326,108
2570103,317,108
2570115,344,108
2570125,313,108
2570136,334,108
2570146,336,108
2570154,313,108
2570167,345,108
2570177,320,108
2570187,323,108
2570198,342,108
2570207,320,108
2570218,353,108
2570228,338,108
2570237,325,108
2570237,346,108
2570254,310,108
2570268,326,108
2570280,326,108
2570289,304,108
2570300,337,108
2570310,314,108
2570320,315,108
2570330,326,108
2570337,412,104
2570351,658,104
2570362,659,104
2570371,416,104
2570382,229,104
2570392,292,104
2570403,311,104
2570413,305,104
2570421,283,104
2570434,315,104
2570444,294,104
2570453,301,104
2570464,323,104
2570471,298,104
2570484,328,104
2570495,323,104
2570504,315,104
2570515,349,104
2570521,323,104
2570537,339,104
2570546,346,104
2570556,326,104
2570567,364,104
2570577,351,104
2570587,363,104
2570598,396,104
2570608,384,104
2570617,426,104
2570621,429,104
2570638,426,104
2570648,457,104
2570653,426,104
2570669,427,104
2570680,400,104
2570687,342,104
2570700,344,104
2570711,305,104
2570720,294,104
2570732,306,104
2570737,275,104
2570752,301,104
2570761,290,104
2570770,279,104
2570782,311,104
2570793,284,104
2570803,298,104
2570813,309,104
2570821,286,104
2570821,319,104
2570844,301,104
2570854,303,104
2570865,325,104
2570871,295,104
2570885,322,104
2570895,314,104
2570905,300,104
2570909,331,104
2570926,302,104
2570936,319,104
2570947,326,104
2570955,299,104
2570962,328,104
2570978,311,104
2570988,311,104
2570988,331,104
2571008,303,104
2571014,329,104
2571023,327,104
2571038,313,104
2571050,343,104
2571059,317,104
2571070,330,104
2571079,339,104
2571088,314,104
2571101,344,104
2571111,325,104
2571121,323,104
2571132,346,104
2571137,316,104
2571152,339,104
2571163,339,104
2571171,324,104
2571183,354,104
2571188,329,104
2571203,342,104
2571209,354,104
2571220,329,104
2571224,357,104
2571238,341,104
2571255,339,104
2571265,362,104
2571271,330,104
2571285,358,104
2571287,366,104
2571304,353,104
2571316,379,104
2571326,353,104
2571337,357,104
2571347,363,104
2571354,335,104
2571368,365,104
2571378,347,104
2571388,342,104
2571388,366,104
2571404,327,104
2571419,365,104
2571429,549,105
2571438,659,105
2571450,659,105
2571460,311,105
2571470,270,105
2571477,355,105
2571488,319,105
2571502,342,105
2571511,327,105
2571521,321,105
2571532,347,105
2571538,319,105
2571552,343,105
2571563,350,105
2571570,333,105
2571583,365,105
2571593,342,105
2571604,353,105
2571614,367,105
2571623,339,105
2571623,370,105
2571645,359,105
2571655,358,105
2571663,391,105
2571670,373,105
2571685,407,105
2571696,426,105
2571704,422,105
2571716,465,105
2571726,446,105
2571737,456,105
2571747,460,105
2571754,400,105
2571768,390,105
2571778,341,105
2571787,306,105
2571799,316,105
2571804,277,105
2571819,294,105
2571830,296,105
2571839,273,105
2571850,304,105
2571855,278,105
2571871,282,105
2571872,299,105
2571887,267,105
2571887,299,105
2571912,289,105
2571921,281,105
2571932,309,105
2571938,279,105
2571938,294,105
2571955,298,105
2571970,273,105
2571983,304,105
2571994,280,105
2572003,285,105
2572011,304,105
2572021,275,105
2572035,303,105
2572045,294,105
2572054,282,105
2572066,309,105
2572071,279,105
2572087,295,105
2572097,298,105
2572104,277,105
2572117,310,105
2572127,288,105
2572137,294,105
2572148,316,105
2572154,285,105
2572154,313,105
2572179,305,105
2572188,292,105
2572199,320,105
2572209,290,105
2572219,304,105
2572230,312,105
2572237,288,105
2572251,320,105
2572260,300,105
2572270,303,105
2572281,326,105
2572287,295,105
2572302,322,105
2572312,315,105
2572322,300,105
2572333,329,105
2572338,301,105
2572352,315,105
2572354,323,105
2572371,297,105
2572383,329,105
2572394,309,105
2572404,311,105
2572414,333,105
2572421,303,105
2572435,331,105
2572438,323,105
2572454,308,105
2572466,340,105
2572474,321,105
2572487,340,105
2572488,347,105
2572505,319,105
2572517,344,105
2572528,319,105
2572537,316,105
2572548,338,105
2572554,309,105
2572568,333,105
2572576,330,105
2572587,312,105
2572599,332,105
2572604,391,105
2572620,655,106
2572630,659,106
2572638,512,106
2572650,231,106
2572661,303,106
2572670,313,106
2572682,321,106
2572692,291,106
2572702,314,106
2572712,312,106
2572721,296,106
2572732,331,106
2572743,308,106
2572753,325,106
2572763,340,106
2572773,316,106
2572784,348,106
2572788,333,106
2572804,330,106
2572815,356,106
2572823,332,106
2572836,363,106
2572846,366,106
2572854,357,106
2572866,400,106
2572877,387,106
2572887,412,106
2572897,439,106
2572904,421,106
2572913,456,106
2572923,438,106
2572937,419,106
2572949,411,106
2572954,345,106
2572968,340,106
2572970,316,106
2572986,283,106
2573000,308,106
2573010,281,106
2573020,289,106
2573020,302,106
2573038,272,106
2573051,302,106
2573053,289,106
2573070,281,106
2573082,309,106
2573088,279,106
2573088,302,106
2573113,303,106
2573121,281,106
2573121,312,106
2573138,288,106
2573154,296,106
2573164,312,106
2573171,284,106
2573185,313,106
2573195,300,106
2573205,291,106
2573215,318,106
2573226,285,106
2573235,306,106
2573246,308,106
2573254,288,106
2573267,321,106
2573278,296,106
2573287,304,106
2573297,323,106
2573304,294,106
2573317,324,106
2573328,314,106
2573338,306,106
2573349,333,106
2573354,304,106
2573370,323,106
2573379,325,106
2573388,301,106
2573400,333,106
2573405,309,106
2573421,315,106
2573432,334,106
2573439,305,106
2573452,334,106
2573454,326,106
2573472,316,106
2573472,345,106
2573488,314,106
2573503,331,106
2573512,336,106
2573521,313,106
2573533,344,106
2573544,323,106
2573554,327,106
2573564,347,106
2573574,317,106
2573586,346,106
2573594,337,106
2573604,324,106
2573616,354,106
2573626,325,106
2573636,341,106
2573647,347,106
2573654,322,106
2573667,355,106
2573677,332,106
2573688,333,106
2573688,362,106
2573704,337,106
2573719,364,106
2573729,353,106
2573737,337,106
2573749,357,106
2573760,324,106
2573770,336,106
2573781,346,106
2573787,320,106
2573801,350,106
2573804,331,106
2573820,318,106
2573832,375,106
2573838,555,102
2573852,659,102
2573862,655,102
2573870,240,102
2573882,298,102
2573893,319,102
2573903,316,102
2573914,321,102
2573921,295,102
2573934,328,102
2573938,312,102
2573954,312,102
2573965,339,102
2573971,310,102
2573971,338,102
2573986,339,102
2574004,322,102
2574017,354,102
2574027,328,102
2574037,343,102
2574046,356,102
2574054,337,102
2574067,376,102
2574078,369,102
2574088,372,102
2574088,409,102
2574104,392,102
2574118,430,102
2574129,437,102
2574138,427,102
2574150,457,102
2574160,420,102
2574170,406,102
2574180,384,102
2574187,327,102
2574201,333,102
2574211,302,102
2574221,289,102
2574232,309,102
2574237,277,102
2574252,298,102
2574262,297,102
2574272,275,102
2574283,305,102
2574293,280,102
2574303,288,102
2574314,305,102
2574321,279,102
2574335,311,102
2574338,296,102
2574354,287,102
2574365,313,102
2574371,284,102
2574371,305,102
2574396,308,102
2574405,288,102
2574416,319,102
2574427,294,102
2574437,300,102
2574447,315,102
2574454,287,102
2574468,315,102
2574475,300,102
2574488,293,102
2574498,320,102
2574504,290,102
2574519,311,102
2574530,313,102
2574537,292,102
2574550,325,102
2574560,301,102
2574571,306,102
2574581,322,102
2574587,293,102
2574601,319,102
2574612,309,102
2574621,297,102
2574632,323,102
2574637,294,102
2574652,312,102
2574655,318,102
2574671,294,102
2574684,326,102
2574688,305,102
2574704,310,102
2574712,327,102
2574720,299,102
2574734,326,102
2574738,315,102
2574754,304,102
2574765,333,102
2574771,303,102
2574786,320,102
2574796,328,102
2574804,304,102
2574817,336,102
2574827,313,102
2574837,315,102
2574847,335,102
2574854,305,102
2574868,334,102
2574874,327,102
2574889,309,102
2574899,337,102
2574904,319,102
2574919,342,102
2574929,346,102
2574937,321,102
2574950,347,102
2574961,320,102
2574971,315,102
2574982,336,102
2574987,304,102
2574987,329,102
2575011,327,102
2575020,311,102
2575032,328,102
2575043,370,102
2575053,640,101
2575064,660,101
2575071,540,101
2575077,222,101
2575094,292,101
2575105,314,101
2575113,325,101
2575121,294,101
2575135,321,101
2575146,314,101
2575155,302,101
2575165,335,101
2575176,314,101
2575186,332,101
2575197,347,101
2575204,324,101
2575218,358,101
2575227,342,101
2575237,340,101
2575247,366,101
2575254,338,101
2575254,369,101
2575271,373,101
2575288,365,101
2575300,409,101
2575305,397,101
2575320,422,101
2575330,447,101
2575338,431,101
2575338,467,101
2575354,452,101
2575371,434,101
2575371,429,101
2575387,363,101
2575402,354,101
2575412,332,101
2575420,298,101
2575433,320,101
2575438,292,101
2575454,300,101
2575464,313,101
2575472,284,101
2575475,313,101
2575494,300,101
2575504,296,101
2575515,325,101
2575520,297,101
2575536,319,101
2575546,320,101
2575554,299,101
2575566,330,101
2575577,306,101
2575587,311,101
2575597,327,101
2575605,297,101
2575617,328,101
2575627,317,101
2575637,310,101
2575649,335,101
2575654,304,101
2575669,322,101
2575679,322,101
2575687,300,101
2575700,332,101
2575704,307,101
2575720,312,101
2575727,331,101
2575738,304,101
2575752,332,101
2575761,325,101
2575770,315,101
2575782,343,101
2575792,313,101
2575803,331,101
2575813,335,101
2575821,310,101
2575833,339,101
2575843,318,101
2575854,323,101
2575864,342,101
2575872,312,101
2575884,338,101
2575895,330,101
2575904,319,101
2575915,345,101
2575922,316,101
2575922,333,101
2575938,339,101
2575954,315,101
2575967,345,101
2575977,325,101
2575988,326,101
2575988,346,101
2576004,315,101
2576018,343,101
2576021,335,101
2576037,319,101
2576049,354,101
2576054,333,101
2576069,352,101
2576079,356,101
2576087,330,101
2576101,353,101
2576111,327,101
2576120,325,101
2576131,345,101
2576138,315,101
2576138,339,101
2576162,333,101
2576171,312,101
2576182,345,101
2576187,473,102
2576203,659,102
2576213,659,102
2576220,320,102
2576234,255,102
2576244,317,102
2576254,306,102
2576265,322,102
2576273,292,102
2576285,315,102
2576294,312,102
2576304,295,102
2576315,327,102
2576326,306,102
2576337,321,102
2576346,336,102
2576354,312,102
2576367,344,102
2576372,329,102
2576387,327,102
2576398,352,102
2576404,324,102
2576417,353,102
2576428,359,102
2576437,352,102
2576449,396,102
2576460,385,102
2576469,410,102
2576480,435,102
2576487,415,102
2576500,448,102
2576511,424,102
2576521,395,102
2576531,385,102
2576538,323,102
2576552,321,102
2576562,302,102
2576571,272,102
2576583,301,102
2576588,274,102
2576603,280,102
2576604,294,102
2576622,264,102
2576634,292,102
2576638,278,102
2576654,271,102
2576665,299,102
2576671,271,102
2576685,294,102
2576696,296,102
2576704,274,102
2576717,304,102
2576726,282,102
2576736,288,102
2576737,307,102
2576754,277,102
2576767,307,102
2576771,296,102
2576787,286,102
2576798,313,102
2576804,282,102
2576818,299,102
2576829,302,102
2576837,280,102
2576837,311,102
2576856,290,102
2576870,295,102
2576880,313,102
2576887,286,102
2576900,317,102
2576912,309,102
2576921,299,102
2576932,328,102
2576937,299,102
2576953,316,102
2576961,320,102
2576971,296,102
2576973,325,102
2576987,302,102
2577003,307,102
2577013,326,102
2577021,298,102
2577034,327,102
2577045,320,102
2577054,310,102
2577065,340,102
2577075,310,102
2577086,326,102
2577095,332,102
2577104,306,102
2577104,336,102
2577126,316,102
2577137,317,102
2577138,340,102
2577154,310,102
2577168,337,102
2577178,330,102
2577187,317,102
2577199,347,102
2577204,319,102
2577219,334,102
2577227,341,102
2577237,315,102
2577251,344,102
2577253,329,102
2577270,337,102
2577280,364,102
2577287,331,102
2577302,354,102
2577304,342,102
2577321,320,102
2577332,348,102
2577338,320,102
2577352,333,102
2577363,341,102
2577370,318,102
2577384,345,102
2577393,320,102
2577404,432,100
2577414,658,100
2577421,659,100
2577435,459,100
2577445,233,100
2577454,310,100
2577465,343,100
2577475,305,100
2577486,316,100
2577496,330,100
2577505,302,100
2577505,335,100
2577528,323,100
2577537,322,100
2577547,350,100
2577554,324,100
2577568,347,100
2577579,347,100
2577587,328,100
2577599,357,100
2577604,335,100
2577620,349,100
2577629,370,100
2577638,348,100
2577650,389,100
2577661,386,100
2577671,392,100
2577681,431,100
2577687,414,100
2577687,445,100
2577712,449,100
2577721,425,100
2577732,436,100
2577738,379,100
2577753,350,100
2577754,338,100
2577771,290,100
2577784,306,100
2577794,288,100
2577804,278,100
2577815,303,100
2577821,270,100
2577836,288,100
2577845,288,100
2577854,266,100
2577865,296,100
2577876,274,100
2577886,281,100
2577897,301,100
2577904,271,100
2577917,297,100
2577928,285,100
2577938,275,100
2577948,303,100
2577955,274,100
2577955,291,100
2577979,296,100
2577987,271,100
2577987,304,100
2578010,281,100
2578019,283,100
2578021,303,100
2578037,274,100
2578037,301,100
2578054,290,100
2578071,277,100
2578071,306,100
2578092,279,100
2578102,298,100
2578112,305,100
2578121,284,100
2578121,317,100
2578143,296,100
2578153,299,100
2578163,317,100
2578170,288,100
2578184,314,100
2578195,307,100
2578204,294,100
2578214,326,100
2578225,296,100
2578235,315,100
2578246,325,100
2578254,300,100
2578267,329,100
2578271,312,100
2578287,311,100
2578296,334,100
2578305,307,100
2578313,332,100
2578328,327,100
2578337,314,100
2578348,344,100
2578354,316,100
2578369,329,100
2578379,339,100
2578388,313,100
2578388,344,100
2578408,328,100
2578420,328,100
2578430,353,100
2578438,325,100
2578438,345,100
2578455,344,100
2578471,340,100
2578481,372,100
2578492,342,100
2578502,351,100
2578512,353,100
2578521,323,100
2578533,350,100
2578543,334,100
2578554,328,100
2578564,350,100
2578571,322,100
2578585,337,100
2578595,346,100
2578603,506,100
2578615,659,100
2578621,658,100
2578636,298,100
2578647,269,100
2578654,312,100
2578654,336,100
2578670,315,100
2578687,309,100
2578698,338,100
2578704,313,100
2578718,331,100
2578729,334,100
2578738,318,100
2578748,354,100
2578759,336,100
2578769,346,100
2578780,362,100
2578787,338,100
2578800,367,100
2578804,356,100
2578821,352,100
2578831,383,100
2578837,363,100
2578851,390,100
2578855,407,100
2578871,400,100
2578882,446,100
2578888,436,100
2578903,451,100
2578913,470,100
2578921,436,100
2578934,435,100
2578943,391,100
2578953,347,100
2578964,347,100
2578974,301,100
2578985,308,100
2578988,306,100
2579004,282,100
2579016,311,100
2579023,288,100
2579036,289,100
2579046,311,100
2579054,281,100
2579067,310,100
2579077,304,100
2579087,296,100
2579098,327,100
2579103,299,100
2579118,317,100
2579129,326,100
2579138,302,100
2579149,333,100
2579154,314,100
2579170,315,100
2579180,336,100
2579187,305,100
2579200,328,100
2579211,321,100
2579221,306,100
2579223,333,100
2579238,303,100
2579238,321,100
2579255,330,100
2579271,305,100
2579271,338,100
2579288,322,100
2579288,323,100
2579314,344,100
2579321,316,100
2579334,340,100
2579343,332,100
2579355,317,100
2579355,346,100
2579371,319,100
2579385,330,100
2579388,339,100
2579403,315,100
2579414,346,100
2579422,327,100
2579436,323,100
2579438,346,100
2579454,319,100
2579468,339,100
2579478,337,100
2579487,320,100
2579498,351,100
2579504,325,100
2579519,336,100
2579529,345,100
2579537,316,100
2579549,353,100
2579560,346,100
2579570,341,100
2579573,361,100
2579589,328,100
2579601,341,100
2579611,337,100
2579620,317,100
2579632,346,100
2579637,319,100
2579652,331,100
2579662,346,100
2579671,306,100
2579684,351,100
2579693,522,102
2579704,659,102
2579713,658,102
2579722,279,102
2579733,263,102
2579745,330,102
2579754,301,102
2579765,325,102
2579771,303,102
2579786,310,102
2579796,328,102
2579804,302,102
2579816,332,102
2579827,323,102
2579837,317,102
2579847,347,102
2579854,320,102
2579868,342,102
2579872,347,102
2579887,326,102
2579899,359,102
2579904,339,102
2579918,352,102
2579929,377,102
2579937,357,102
2579949,398,102
2579960,402,102
2579970,407,102
2579980,447,102
2579987,426,102
2580001,446,102
2580011,441,102
2580021,389,102
2580021,385,102
2580037,328,102
2580052,303,102
2580062,304,102
2580071,266,102
2580083,290,102
2580093,280,102
2580104,266,102
2580114,295,102
2580121,264,102
2580135,279,102
2580145,287,102
2580155,264,102
2580165,296,102
2580173,275,102
2580186,279,102
2580188,303,102
2580204,274,102
2580217,299,102
2580227,292,102
2580237,276,102
2580238,306,102
2580254,278,102
2580268,292,102
2580272,301,102
2580288,276,102
2580288,305,102
2580309,286,102
2580319,285,102
2580321,305,102
2580338,276,102
2580338,301,102
2580354,298,102
2580370,282,102
2580381,312,102
2580387,286,102
2580402,302,102
2580412,314,102
2580421,289,102
2580421,322,102
2580438,304,102
2580453,302,102
2580463,324,102
2580471,293,102
2580483,315,102
2580494,314,102
2580503,296,102
2580514,328,102
2580521,302,102
2580535,314,102
2580545,327,102
2580554,301,102
2580562,331,102
2580572,316,102
2580572,310,102
2580596,335,102
2580604,305,102
2580617,326,102
2580622,326,102
2580638,306,102
2580638,339,102
2580654,313,102
2580669,322,102
2580671,337,102
2580688,309,102
2580699,341,102
2580709,327,102
2580720,318,102
2580730,345,102
2580737,314,102
2580737,335,102
2580755,336,102
2580771,316,102
2580782,350,102
2580787,325,102
2580802,330,102
2580812,355,102
2580821,332,102
2580832,360,102
2580843,345,102
2580853,333,102
2580864,352,102
2580872,321,102
2580884,338,102
2580894,342,102
2580903,319,102
2580914,351,102
2580921,329,102
2580935,322,102
2580945,379,102
2580955,562,101
2580966,659,101
2580971,655,101
2580987,246,101
2580996,302,101
2581003,319,101
2581017,318,101
2581021,321,101
2581037,296,101
2581048,329,101
2581054,307,101
2581054,314,101
2581079,339,101
2581087,315,101
2581100,343,101
2581105,337,101
2581120,326,101
2581130,357,101
2581139,329,101
2581139,349,101
2581157,362,101
2581171,340,101
2581182,376,101
2581187,368,101
2581203,377,101
2581212,411,101
2581221,395,101
2581233,433,101
2581237,439,101
2581254,431,101
2581264,462,101
2581273,424,101
2581273,415,101
2581295,390,101
2581304,330,101
2581316,336,101
2581321,301,101
2581336,291,101
2581346,309,101
2581354,275,101
2581366,298,101
2581375,292,101
2581387,274,101
2581388,304,101
2581405,278,101
2581418,289,101
2581421,302,101
2581437,277,101
2581437,308,101
2581454,291,101
2581469,287,101
2581480,310,101
2581487,279,101
2581500,302,101
2581510,300,101
2581519,283,101
2581531,314,101
2581537,288,101
2581551,295,101
2581561,308,101
2581570,280,101
2581581,308,101
2581592,292,101
2581603,286,101
2581613,312,101
2581621,281,101
2581634,303,101
2581644,304,101
2581654,284,101
2581664,316,101
2581671,290,101
2581684,298,101
2581688,311,101
2581705,282,101
2581716,310,101
2581721,297,101
2581721,290,101
2581738,316,101
2581754,286,101
2581767,306,101
2581778,306,101
2581787,287,101
2581798,318,101
2581804,295,101
2581818,304,101
2581829,322,101
2581838,294,101
2581850,323,101
2581854,310,101
2581870,302,101
2581879,331,101
2581887,299,101
2581900,318,101
2581911,322,101
2581921,302,101
2581932,335,101
2581938,314,101
2581938,318,101
2581962,339,101
2581971,312,101
2581971,340,101
2581987,330,101
2582003,318,101
2582014,345,101
2582021,319,101
2582021,335,101
2582044,340,101
2582054,315,101
2582063,346,101
2582073,336,101
2582073,345,101
2582088,362,101
2582104,330,101
2582115,349,101
2582126,334,101
2582136,318,101
2582147,349,101
2582153,319,101
2582167,334,101
2582177,341,101
2582188,316,101
2582198,339,101
2582204,422,99
2582204,658,99
2582229,659,99
2582237,464,99
2582237,228,99
2582260,317,99
2582269,313,99
2582271,333,99
2582287,303,99
2582301,318,99
2582306,332,99
2582321,308,99
2582332,342,99
2582337,329,99
2582352,331,99
2582362,356,99
2582371,333,99
2582383,361,99
2582387,360,99
2582404,344,99
2582413,375,99
2582424,352,99
2582434,368,99
2582445,384,99
2582454,369,99
2582464,411,99
2582471,409,99
2582485,417,99
2582496,456,99
2582504,437,99
2582517,464,99
2582526,461,99
2582537,429,99
2582547,427,99
2582555,365,99
2582555,344,99
2582572,333,99
2582588,291,99
2582599,312,99
2582604,294,99
2582620,286,99
2582629,308,99
2582638,276,99
2582638,295,99
2582654,301,99
2582670,280,99
2582681,313,99
2582687,292,99
2582701,301,99
2582705,318,99
2582722,292,99
2582732,322,99
2582737,310,99
2582752,303,99
2582762,330,99
2582770,302,99
2582783,323,99
2582794,324,99
2582804,302,99
2582814,332,99
2582823,309,99
2582834,314,99
2582844,329,99
2582854,301,99
2582865,330,99
2582870,320,99
2582886,311,99
2582888,340,99
2582904,314,99
2582917,331,99
2582922,336,99
2582937,312,99
2582947,343,99
2582954,320,99
2582968,324,99
2582979,341,99
2582987,313,99
2582998,339,99
2583003,330,99
2583019,320,99
2583030,350,99
2583037,322,99
2583050,338,99
2583060,344,99
2583071,320,99
2583081,350,99
2583087,331,99
2583101,332,99
2583112,350,99
2583121,321,99
2583132,349,99
2583138,341,99
2583138,328,99
2583163,362,99
2583170,343,99
2583184,358,99
2583188,363,99
2583204,333,99
2583214,355,99
2583222,334,99
2583235,332,99
2583245,352,99
2583254,322,99
2583265,348,99
2583276,341,99
2583287,314,99
2583296,389,99
2583305,587,101
2583316,659,101
2583327,649,101
2583338,222,101
2583348,301,101
2583354,327,101
2583369,309,101
2583379,328,101
2583388,300,101
2583399,324,101
2583409,323,101
2583419,306,101
2583430,341,101
2583437,318,101
2583450,333,101
2583461,348,101
2583471,322,101
2583471,354,101
2583487,340,101
2583502,337,101
2583504,363,101
2583522,338,101
2583532,366,101
2583543,371,101
2583553,364,101
2583564,409,101
2583571,400,101
2583584,421,101
2583594,448,101
2583604,428,101
