Timestamp,ECGValue,BPM
2198350,307,58
2198360,310,58
2198371,314,58
2198371,307,58
2198388,311,58
2198401,313,58
2198405,310,58
2198422,310,58
2198433,311,58
2198438,311,58
2198453,309,58
2198455,312,58
2198471,315,58
2198481,310,58
2198489,313,58
2198505,315,58
2198505,317,58
2198521,317,58
2198534,317,58
2198546,318,58
2198556,321,58
2198566,319,58
2198576,318,58
2198586,321,58
2198596,322,58
2198604,325,58
2198604,323,58
2198624,323,58
2198638,325,58
2198648,325,58
2198655,325,58
2198655,328,58
2198671,330,58
2198688,328,58
2198700,331,58
2198710,324,58
2198720,330,58
2198728,330,58
2198737,333,58
2198737,331,58
2198760,334,58
2198771,339,58
2198781,328,58
2198790,334,58
2198790,335,58
2198813,332,58
2198822,335,58
2198829,335,58
2198843,339,58
2198854,338,58
2198856,336,58
2198872,337,58
2198884,348,58
2198894,353,58
2198905,350,58
2198915,349,58
2198921,343,58
2198936,335,58
2198946,337,58
2198954,336,58
2198967,335,58
2198973,337,58
2198987,335,58
2198998,332,58
2199006,330,58
2199006,435,58
2199028,657,57
2199039,658,57
2199039,423,57
2199055,233,57
2199069,327,57
2199080,317,57
2199088,316,57
2199100,314,57
2199105,317,57
2199121,323,57
2199130,322,57
2199138,328,57
2199151,331,57
2199162,333,57
2199171,332,57
2199175,336,57
2199189,340,57
2199203,344,57
2199213,344,57
2199221,354,57
2199234,357,57
2199244,366,57
2199255,370,57
2199255,375,57
2199272,384,57
2199285,392,57
2199296,398,57
2199306,402,57
2199316,396,57
2199322,388,57
2199337,369,57
2199347,351,57
2199356,336,57
2199356,318,57
2199372,312,57
2199387,306,57
2199398,305,57
2199405,306,57
2199418,302,57
2199429,305,57
2199439,308,57
2199439,308,57
2199459,311,57
2199470,308,57
2199480,312,57
2199489,311,57
2199502,312,57
2199509,312,57
2199521,316,57
2199532,309,57
2199539,312,57
2199539,310,57
2199563,310,57
2199571,313,57
2199583,312,57
2199594,311,57
2199603,310,57
2199614,314,57
2199622,316,57
2199622,312,57
2199644,314,57
2199655,315,57
2199665,313,57
2199671,318,57
2199686,316,57
2199689,318,57
2199706,323,57
2199706,318,57
2199722,324,57
2199738,322,57
2199748,318,57
2199754,322,57
2199768,324,57
2199772,325,57
2199788,326,57
2199798,327,57
2199805,325,57
2199820,328,57
2199822,330,57
2199838,330,57
2199842,325,57
2199861,329,57
2199871,329,57
2199880,330,57
2199888,335,57
2199888,331,57
2199906,332,57
2199922,335,57
2199932,334,57
2199942,334,57
2199953,332,57
2199963,336,57
2199972,342,57
2199984,352,57
2199989,350,57
2200003,349,57
2200015,339,57
2200022,335,57
2200035,333,57
2200046,330,57
2200054,334,57
2200065,334,57
2200076,336,57
2200087,331,57
2200097,321,57
2200105,445,57
2200117,658,57
2200128,659,57
2200138,401,57
2200148,217,57
2200159,319,57
2200169,318,57
2200174,309,57
2200188,312,57
2200200,314,57
2200205,320,57
2200220,326,57
2200221,319,57
2200240,327,57
2200251,328,57
2200257,331,57
2200257,342,57
2200282,338,57
2200288,348,57
2200302,347,57
2200312,351,57
2200322,361,57
2200333,366,57
2200342,373,57
2200354,385,57
2200364,392,57
2200371,401,57
2200385,407,57
2200395,411,57
2200405,399,57
2200415,386,57
2200421,365,57
2200436,336,57
2200446,318,57
2200455,308,57
2200467,296,57
2200473,293,57
2200487,291,57
2200498,288,57
2200506,294,57
2200518,291,57
2200521,293,57
2200538,296,57
2200549,295,57
2200554,298,57
2200569,300,57
2200579,299,57
2200589,302,57
2200600,303,57
2200606,301,57
2200621,303,57
2200623,303,57
2200639,305,57
2200651,301,57
2200662,301,57
2200672,301,57
2200680,302,57
2200689,300,57
2200703,305,57
2200714,300,57
2200721,305,57
2200734,303,57
2200741,300,57
2200754,305,57
2200765,302,57
2200771,306,57
2200771,306,57
2200796,306,57
2200805,309,57
2200816,308,57
2200821,311,57
2200837,311,57
2200846,311,57
2200855,313,57
2200867,316,57
2200871,315,57
2200887,315,57
2200899,316,57
2200906,319,57
2200919,316,57
2200928,319,57
2200938,332,57
2200949,339,57
2200955,334,57
2200970,332,57
2200981,325,57
2200988,325,57
2201001,318,57
2201012,321,57
2201021,321,57
2201032,322,57
2201041,326,57
2201041,320,57
2201063,311,57
2201071,406,57
2201083,656,57
2201093,658,57
2201103,454,57
2201114,208,57
2201121,312,57
2201135,314,57
2201143,305,57
2201154,310,57
2201165,311,57
2201171,313,57
2201186,317,57
2201196,322,57
2201207,323,57
2201217,321,57
2201224,327,57
2201237,331,57
2201247,333,57
2201254,339,57
2201268,342,57
2201278,348,57
2201289,351,57
2201299,359,57
2201307,368,57
2201320,375,57
2201330,384,57
2201340,391,57
2201350,395,57
2201360,399,57
2201371,394,57
2201381,378,57
2201389,358,57
2201401,337,57
2201412,322,57
2201422,311,57
2201433,301,57
2201443,302,57
2201454,302,57
2201463,298,57
2201474,304,57
2201484,300,57
2201488,303,57
2201504,307,57
2201515,307,57
2201521,308,57
2201535,312,57
2201545,308,57
2201554,312,57
2201554,311,57
2201573,316,57
2201587,312,57
2201596,309,57
2201607,312,57
2201617,310,57
2201628,310,57
2201638,311,57
2201648,308,57
2201655,314,57
2201670,314,57
2201679,313,57
2201687,317,57
2201699,315,57
2201710,314,57
2201721,315,57
2201731,313,57
2201738,320,57
2201751,317,57
2201761,319,57
2201771,325,57
2201782,317,57
2201791,322,57
2201802,321,57
2201813,324,57
2201821,327,57
2201833,323,57
2201843,324,57
2201853,329,57
2201864,324,57
2201872,327,57
2201872,328,57
2201895,326,57
2201905,330,57
2201910,328,57
2201922,330,57
2201932,331,57
2201946,328,57
2201955,334,57
2201967,329,57
2201977,332,57
2201987,332,57
2201998,333,57
2202007,330,57
2202007,335,57
2202022,332,57
2202038,338,57
2202049,334,57
2202056,337,57
2202070,340,57
2202080,333,57
2202089,345,57
2202100,354,57
2202110,349,57
2202121,350,57
2202131,341,57
2202139,337,57
2202151,337,57
2202155,335,57
2202172,333,57
2202182,335,57
2202193,336,57
2202204,336,57
2202207,321,57
2202223,390,57
2202234,618,56
2202238,659,56
2202255,569,56
2202265,222,56
2202273,308,56
2202285,326,56
2202296,313,56
2202306,312,56
2202316,316,56
2202326,321,56
2202337,322,56
2202346,323,56
2202355,327,56
2202367,331,56
2202378,332,56
2202388,339,56
2202398,338,56
2202407,342,56
2202419,350,56
2202429,348,56
2202438,356,56
2202449,358,56
2202460,367,56
2202470,376,56
2202481,383,56
2202488,392,56
2202501,398,56
2202507,403,56
2202521,402,56
2202531,394,56
2202539,380,56
2202552,358,56
2202563,338,56
2202572,322,56
2202583,310,56
2202593,306,56
2202603,305,56
2202614,302,56
2202621,306,56
2202635,310,56
2202641,303,56
2202654,307,56
2202665,307,56
2202674,307,56
2202686,311,56
2202696,308,56
2202706,314,56
2202707,309,56
2202727,309,56
2202737,309,56
2202747,308,56
2202754,308,56
2202768,310,56
2202771,308,56
2202788,310,56
2202799,310,56
2202807,313,56
2202820,309,56
2202830,309,56
2202838,310,56
2202850,312,56
2202861,317,56
2202871,317,56
2202881,314,56
2202889,315,56
2202902,320,56
2202912,316,56
2202921,318,56
2202933,318,56
2202939,320,56
2202953,321,56
2202963,319,56
2202971,322,56
2202984,324,56
2202989,322,56
2203005,324,56
2203015,322,56
2203023,325,56
2203035,326,56
2203042,323,56
2203054,332,56
2203066,324,56
2203077,328,56
2203087,328,56
2203097,330,56
2203105,328,56
2203117,331,56
2203124,329,56
2203137,329,56
2203148,335,56
2203155,349,56
2203170,344,56
2203178,342,56
2203188,341,56
2203199,331,56
2203208,332,56
2203220,330,56
2203231,328,56
2203238,332,56
2203252,333,56
2203262,327,56
2203271,315,56
2203282,373,56
2203291,630,56
2203303,659,56
2203312,586,56
2203321,205,56
2203333,298,56
2203344,317,56
2203353,312,56
2203364,311,56
2203371,314,56
2203385,317,56
2203395,322,56
2203405,324,56
2203415,318,56
2203422,330,56
2203436,331,56
2203439,330,56
2203455,339,56
2203467,339,56
2203471,347,56
2203487,348,56
2203498,356,56
2203504,361,56
2203509,366,56
2203522,377,56
2203538,392,56
2203549,394,56
2203557,402,56
2203570,408,56
2203580,402,56
2203588,396,56
2203600,368,56
2203609,345,56
2203621,328,56
2203631,312,56
2203640,298,56
2203651,293,56
2203655,291,56
2203671,289,56
2203671,291,56
2203689,296,56
2203703,289,56
2203713,293,56
2203723,296,56
2203734,298,56
2203738,298,56
2203755,301,56
2203755,302,56
2203772,302,56
2203786,303,56
2203796,301,56
2203805,303,56
2203816,300,56
2203822,300,56
2203837,301,56
2203843,299,56
2203857,298,56
2203857,300,56
2203873,299,56
2203888,302,56
2203898,300,56
2203905,304,56
2203919,306,56
2203929,302,56
2203939,307,56
2203949,306,56
2203960,306,56
2203970,306,56
2203981,304,56
2203988,309,56
2204001,311,56
2204009,311,56
2204021,309,56
2204032,311,56
2204038,313,56
2204053,317,56
2204063,315,56
2204071,315,56
2204083,319,56
2204094,319,56
2204103,318,56
2204114,319,56
2204122,333,56
2204122,337,56
2204145,335,56
2204155,335,56
2204166,324,56
2204174,323,56
2204186,319,56
2204197,322,56
2204204,324,56
2204217,318,56
2204227,322,56
2204237,319,56
2204248,317,56
2204258,443,56
2204265,658,56
2204273,658,56
2204288,365,56
2204288,228,56
2204307,318,56
2204320,313,56
2204330,304,56
2204340,308,56
2204341,312,56
2204357,311,56
2204371,314,56
2204381,321,56
2204389,322,56
2204402,327,56
2204412,326,56
2204423,333,56
2204431,335,56
2204440,339,56
2204454,343,56
2204463,346,56
2204473,358,56
2204483,360,56
2204494,364,56
2204505,380,56
2204510,382,56
2204521,392,56
2204531,398,56
2204538,398,56
2204555,395,56
2204566,378,56
2204571,354,56
2204587,337,56
2204596,316,56
2204606,310,56
2204617,302,56
2204628,295,56
2204638,299,56
2204649,298,56
2204655,300,56
2204655,302,56
2204672,303,56
2204690,303,56
2204699,305,56
2204710,303,56
2204720,309,56
2204729,307,56
2204738,307,56
2204738,308,56
2204755,311,56
2204772,314,56
2204782,307,56
2204788,313,56
2204803,313,56
2204813,312,56
2204822,311,56
2204833,311,56
2204844,311,56
2204853,315,56
2204864,313,56
2204872,315,56
2204884,317,56
2204894,314,56
2204905,316,56
2204915,314,56
2204921,317,56
2204935,320,56
2204947,318,56
2204955,319,56
2204967,321,56
2204977,323,56
2204987,324,56
2204998,320,56
2205005,325,56
2205011,327,56
2205029,321,56
2205039,325,56
2205039,326,56
2205057,330,56
2205057,328,56
2205081,330,56
2205087,333,56
2205101,330,56
2205111,328,56
2205122,330,56
2205122,333,56
2205139,331,56
2205152,332,56
2205162,332,56
2205172,332,56
2205183,332,56
2205189,333,56
2205203,336,56
2205213,336,56
2205221,335,56
2205234,334,56
2205244,348,56
2205254,357,56
2205265,348,56
2205271,348,56
2205286,342,56
2205296,335,56
2205306,336,56
2205316,335,56
2205322,334,56
2205331,335,56
2205347,334,56
2205354,335,56
2205367,324,56
2205378,411,56
2205388,655,56
2205398,659,56
2205405,493,56
2205419,222,56
2205424,319,56
2205439,325,56
2205449,314,56
2205454,314,56
2205470,317,56
2205481,320,56
2205488,321,56
2205501,323,56
2205512,330,56
2205522,334,56
2205522,331,56
2205538,335,56
2205553,338,56
2205562,342,56
2205572,351,56
2205583,350,56
2205588,353,56
2205603,362,56
2205614,368,56
2205621,377,56
2205635,385,56
2205642,393,56
2205655,399,56
2205666,399,56
2205671,398,56
2205685,391,56
2205697,375,56
2205705,351,56
2205717,331,56
2205722,316,56
2205738,315,56
2205739,304,56
2205756,302,56
2205768,305,56
2205778,304,56
2205788,306,56
2205800,306,56
2205806,305,56
2205811,310,56
2205830,307,56
2205840,313,56
2205840,312,56
2205856,313,56
2205872,314,56
2205881,306,56
2205888,312,56
2205902,312,56
2205912,310,56
2205921,313,56
2205933,309,56
2205939,311,56
2205953,313,56
2205963,309,56
2205974,312,56
2205984,314,56
2205988,313,56
2206005,316,56
2206015,312,56
2206022,315,56
2206036,320,56
2206042,315,56
2206056,317,56
2206056,320,56
2206072,319,56
2206082,320,56
2206097,321,56
2206104,326,56
2206117,322,56
2206128,322,56
2206138,329,56
2206149,322,56
2206155,327,56
2206170,328,56
2206179,324,56
2206188,329,56
2206199,326,56
2206205,326,56
2206211,334,56
2206231,327,56
2206238,334,56
2206251,331,56
2206255,326,56
2206272,333,56
2206272,332,56
2206288,330,56
2206298,333,56
2206313,338,56
2206321,333,56
2206333,343,56
2206344,355,56
2206353,349,56
2206364,344,56
2206371,336,56
2206385,336,56
2206395,333,56
2206405,333,56
2206416,328,56
2206424,330,56
2206431,333,56
2206446,328,56
2206454,323,56
2206467,441,56
2206477,658,56
2206487,659,56
2206498,408,56
2206505,219,56
2206512,317,56
2206529,318,56
2206539,311,56
2206549,309,56
2206556,313,56
2206569,321,56
2206581,316,56
2206587,325,56
2206601,328,56
2206610,328,56
2206622,333,56
2206626,333,56
2206638,337,56
2206652,344,56
2206662,343,56
2206672,352,56
2206683,354,56
2206692,368,56
2206704,375,56
2206713,379,56
2206723,391,56
2206734,401,56
2206744,401,56
2206754,405,56
2206755,402,56
2206773,386,56
2206786,365,56
2206797,340,56
2206806,324,56
2206812,303,56
2206822,297,56
2206837,294,56
2206847,287,56
2206856,292,56
2206868,291,56
2206876,289,56
2206887,298,56
2206890,290,56
2206906,299,56
2206919,298,56
2206929,298,56
2206938,303,56
2206938,301,56
2206953,303,56
2206971,306,56
2206979,303,56
2206990,303,56
2206995,305,56
2207011,303,56
2207012,302,56
2207029,304,56
2207042,302,56
2207045,307,56
2207060,304,56
2207073,303,56
2207083,306,56
2207094,304,56
2207104,309,56
2207112,305,56
2207124,307,56
2207135,307,56
2207145,310,56
2207146,308,56
2207162,309,56
2207176,313,56
2207186,312,56
2207194,311,56
2207206,314,56
2207213,316,56
2207227,315,56
2207238,317,56
2207245,316,56
2207259,316,56
2207269,320,56
2207278,317,56
2207289,319,56
2207299,321,56
2207310,318,56
2207320,323,56
2207328,324,56
2207340,323,56
2207350,324,56
2207360,334,56
2207371,344,56
2207378,338,56
2207392,338,56
2207402,333,56
2207412,328,56
2207422,325,56
2207428,320,56
2207442,325,56
2207445,325,56
2207461,324,56
2207461,326,56
2207485,315,56
2207494,383,56
2207505,624,56
2207513,659,56
2207525,536,56
2207536,210,56
2207544,304,56
2207556,319,56
2207561,304,56
2207576,308,56
2207580,311,56
2207594,313,56
2207607,318,56
2207617,318,56
2207628,321,56
2207638,325,56
2207644,326,56
2207659,330,56
2207669,336,56
2207678,340,56
2207690,342,56
2207700,346,56
2207710,355,56
2207720,358,56
2207730,364,56
2207741,375,56
2207751,384,56
2207762,392,56
2207762,399,56
2207778,398,56
2207793,394,56
2207803,387,56
2207812,369,56
2207823,348,56
2207828,331,56
2207844,313,56
2207854,306,56
2207862,304,56
2207862,298,56
2207878,300,56
2207895,303,56
2207896,300,56
2207913,303,56
2207913,306,56
2207935,306,56
2207944,306,56
2207957,310,56
2207961,310,56
2207977,312,56
2207988,311,56
2207994,315,56
2207994,311,56
2208015,315,56
2208028,310,56
2208039,316,56
2208049,315,56
2208059,313,56
2208070,314,56
2208078,313,56
2208090,312,56
2208101,316,56
2208110,316,56
2208121,316,56
2208130,315,56
2208142,317,56
2208152,317,56
2208161,318,56
2208172,320,56
2208178,317,56
2208192,319,56
2208203,323,56
2208213,320,56
2208224,321,56
2208229,323,56
2208239,322,56
2208255,324,56
2208260,325,56
2208275,322,56
2208278,327,56
2208295,326,56
2208295,323,56
2208313,325,56
2208327,330,56
2208328,329,56
2208347,327,56
2208357,329,56
2208368,329,56
2208378,332,56
2208388,333,56
2208395,328,56
2208409,330,56
2208413,335,56
2208428,333,56
2208440,333,56
2208444,334,56
2208461,334,56
2208470,337,56
2208478,330,56
2208491,335,56
2208494,343,56
2208511,351,56
2208522,351,56
2208532,345,56
2208542,345,56
2208553,338,56
2208561,333,56
2208574,332,56
2208579,334,56
2208594,334,56
2208603,334,56
2208613,335,56
2208624,326,56
2208635,413,56
2208645,657,55
2208655,659,55
2208661,498,55
2208676,216,55
2208678,314,55
2208694,322,55
2208706,313,55
2208714,315,55
2208727,315,55
2208738,317,55
2208745,321,55
2208759,324,55
2208768,326,55
2208778,330,55
2208789,331,55
2208799,335,55
2208810,337,55
2208819,344,55
2208828,345,55
2208840,350,55
2208845,355,55
2208861,361,55
2208861,369,55
2208878,378,55
2208892,386,55
2208897,398,55
2208911,402,55
2208922,406,55
2208931,408,55
2208942,393,55
2208953,375,55
2208961,351,55
2208974,333,55
2208984,316,55
2208994,303,55
2209005,300,55
2209014,296,55
2209015,298,55
2209035,299,55
2209044,294,55
2209055,300,55
2209067,300,55
2209076,298,55
2209084,302,55
2209095,304,55
2209095,306,55
2209114,301,55
2209128,309,55
2209138,308,55
2209144,304,55
2209159,306,55
2209169,308,55
2209178,303,55
2209190,304,55
2209199,305,55
2209210,305,55
2209220,306,55
2209229,302,55
2209229,310,55
2209250,308,55
2209261,306,55
2209272,307,55
2209279,308,55
2209292,311,55
2209294,309,55
2209312,310,55
2209323,311,55
2209328,311,55
2209344,313,55
2209344,314,55
2209361,311,55
2209361,317,55
2209378,317,55
2209395,312,55
2209395,319,55
2209415,319,55
2209426,318,55
2209436,318,55
2209445,320,55
2209456,319,55
2209468,320,55
2209477,321,55
2209486,325,55
2209495,324,55
2209495,325,55
2209519,340,55
2209529,343,55
2209539,336,55
2209545,336,55
2209560,327,55
2209570,324,55
2209578,322,55
2209587,323,55
2209595,324,55
2209611,325,55
2209622,327,55
2209628,314,55
2209642,327,55
2209645,485,55
2209660,659,56
2209673,658,56
2209683,297,56
2209692,240,56
2209703,316,56
2209712,309,56
2209724,307,56
2209727,310,56
2209744,311,56
2209755,315,56
2209762,319,56
2209775,321,56
2209786,328,56
2209795,326,56
2209806,326,56
2209815,337,56
2209827,334,56
2209837,338,56
2209844,345,56
2209858,349,56
2209868,356,56
2209878,361,56
2209888,370,56
2209896,382,56
2209896,388,56
2209915,394,56
2209928,396,56
2209938,402,56
2209949,397,56
2209960,380,56
2209970,356,56
2209979,335,56
2209991,320,56
2210002,307,56
2210010,303,56
2210022,297,56
2210029,295,56
2210043,295,56
2210053,295,56
2210061,295,56
2210073,299,56
2210083,300,56
2210094,301,56
2210095,304,56
2210111,305,56
2210125,306,56
2210135,311,56
2210145,308,56
2210156,310,56
2210161,309,56
2210177,305,56
2210185,309,56
2210194,304,56
2210206,308,56
2210217,310,56
2210227,306,56
2210229,307,56
2210245,310,56
2210245,314,56
2210261,312,56
2210278,309,56
2210287,314,56
2210297,314,56
2210310,312,56
2210319,318,56
2210328,316,56
2210341,320,56
2210351,319,56
2210361,320,56
2210371,319,56
2210377,322,56
2210392,325,56
2210402,325,56
2210411,326,56
2210422,320,56
2210431,323,56
2210442,325,56
2210454,327,56
2210461,326,56
2210475,328,56
2210479,330,56
2210494,328,56
2210505,331,56
2210512,330,56
2210525,332,56
2210536,328,56
2210545,334,56
2210556,333,56
2210566,334,56
2210577,331,56
2210587,337,56
2210595,333,56
2210608,335,56
2210618,337,56
2210628,336,56
2210629,339,56
2210645,337,56
2210659,334,56
2210669,342,56
2210679,354,56
2210690,354,56
2210694,348,56
2210710,345,56
2210716,341,56
2210728,334,56
2210741,333,56
2210752,334,56
2210761,334,56
2210772,335,56
2210782,332,56
2210792,326,56
2210803,350,56
2210812,520,56
2210823,658,56
2210831,656,56
2210845,270,56
2210854,276,56
2210861,330,56
2210875,315,56
2210877,310,56
2210895,317,56
2210906,319,56
2210916,322,56
2210926,323,56
2210933,327,56
2210945,328,56
2210956,332,56
2210967,331,56
2210977,337,56
2210985,340,56
2210995,343,56
2211009,350,56
2211016,351,56
2211028,354,56
2211039,365,56
2211045,371,56
2211045,375,56
2211070,387,56
2211078,390,56
2211086,398,56
2211098,397,56
2211110,395,56
2211121,386,56
2211128,363,56
2211142,344,56
2211145,326,56
2211161,315,56
2211161,307,56
2211178,303,56
2211193,303,56
2211194,302,56
2211211,300,56
2211224,303,56
2211228,307,56
2211244,304,56
2211255,305,56
2211261,311,56
2211261,308,56
2211278,309,56
2211295,306,56
2211307,311,56
2211316,307,56
2211327,309,56
2211338,312,56
2211344,307,56
2211344,309,56
2211361,306,56
2211378,310,56
2211389,311,56
2211394,308,56
2211409,307,56
2211417,313,56
2211428,310,56
2211439,313,56
2211445,309,56
2211461,311,56
2211470,313,56
2211478,312,56
2211491,315,56
2211494,315,56
2211512,316,56
2211522,318,56
2211532,317,56
2211543,317,56
2211553,316,56
2211563,318,56
2211573,326,56
2211578,317,56
2211594,320,56
2211604,321,56
2211611,323,56
2211625,325,56
2211635,322,56
2211645,323,56
2211656,325,56
2211661,326,56
2211676,326,56
2211680,327,56
2211695,330,56
2211707,328,56
2211717,325,56
2211727,332,56
2211738,331,56
2211744,330,56
2211758,332,56
2211769,331,56
2211779,329,56
2211789,334,56
2211794,345,56
2211810,351,56
2211817,341,56
2211827,338,56
2211827,335,56
2211844,332,56
2211861,329,56
2211872,329,56
2211878,326,56
2211892,326,56
2211894,332,56
2211911,321,56
2211922,342,56
2211927,540,55
2211936,659,55
2211954,656,55
2211962,240,55
2211962,266,55
2211984,321,55
2211994,306,55
2212005,311,55
2212010,308,55
2212026,314,55
2212036,316,55
2212044,319,55
2212056,323,55
2212063,324,55
2212063,327,55
2212087,334,55
2212095,337,55
2212095,340,55
2212118,342,55
2212128,347,55
2212138,352,55
2212145,356,55
2212159,367,55
2212169,380,55
2212178,379,55
2212190,394,55
2212199,407,55
2212211,406,55
2212221,411,55
2212229,402,55
2212234,391,55
2212252,363,55
2212261,341,55
2212272,318,55
2212282,308,55
2212292,298,55
2212303,296,55
2212312,291,55
2212323,296,55
2212334,296,55
2212344,298,55
2212354,295,55
2212362,297,55
2212374,298,55
2212385,302,55
2212395,299,55
2212405,303,55
2212412,305,55
2212427,306,55
2212432,305,55
2212445,302,55
2212457,304,55
2212468,300,55
2212478,302,55
2212480,303,55
2212494,301,55
2212494,304,55
2212519,304,55
2212528,302,55
2212539,305,55
2212544,308,55
2212550,305,55
2212570,311,55
2212578,308,55
2212590,306,55
2212594,312,55
2212611,311,55
2212621,313,55
2212628,311,55
2212642,313,55
2212644,317,55
2212661,314,55
2212672,313,55
2212678,319,55
2212686,316,55
2212704,316,55
2212711,319,55
2212724,322,55
2212730,319,55
2212744,320,55
2212744,321,55
2212761,326,55
2212775,343,55
2212786,338,55
2212794,330,55
2212794,335,55
2212811,325,55
2212827,322,55
2212837,324,55
2212844,320,55
2212858,324,55
2212868,325,55
2212878,325,55
2212883,315,55
2212895,379,55
2212909,625,56
2212919,659,56
2212928,539,56
2212940,208,56
2212950,298,56
2212961,318,56
2212970,308,56
2212977,309,56
2212991,313,56
2213002,314,56
2213011,317,56
2213022,320,56
2213030,325,56
2213043,327,56
2213053,329,56
2213063,333,56
2213063,336,56
2213084,339,56
2213093,345,56
2213104,348,56
2213112,353,56
2213125,360,56
2213135,367,56
2213144,378,56
2213155,383,56
2213161,390,56
2213161,398,56
2213186,399,56
2213195,398,56
2213207,389,56
2213210,371,56
2213227,347,56
2213238,329,56
2213244,315,56
2213258,307,56
2213269,302,56
2213279,297,56
2213289,298,56
2213294,299,56
2213310,298,56
2213320,304,56
2213327,300,56
2213340,303,56
2213351,306,56
2213361,306,56
2213371,307,56
2213378,307,56
2213378,313,56
2213402,313,56
2213412,305,56
2213422,307,56
2213433,306,56
2213443,308,56
2213454,311,56
2213461,307,56
2213474,310,56
2213483,314,56
2213495,310,56
2213505,309,56
2213512,311,56
2213526,312,56
2213536,311,56
2213544,314,56
2213557,315,56
2213561,313,56
2213576,311,56
2213588,317,56
2213595,320,56
2213595,316,56
2213618,316,56
2213628,320,56
2213639,323,56
2213645,317,56
2213659,321,56
2213670,325,56
2213678,322,56
2213690,323,56
2213700,328,56
2213711,323,56
2213720,326,56
2213731,324,56
2213731,326,56
2213744,329,56
2213761,327,56
2213761,330,56
2213779,328,56
2213787,332,56
2213803,330,56
2213812,329,56
2213823,334,56
2213828,336,56
2213844,333,56
2213855,334,56
2213861,334,56
2213875,337,56
2213885,334,56
2213895,336,56
2213906,350,56
2213911,350,56
2213919,346,56
2213936,344,56
2213946,341,56
2213956,335,56
2213967,330,56
2213977,331,56
2213988,334,56
2213995,333,56
2214009,333,56
2214019,330,56
2214028,344,56
2214039,511,55
2214045,658,55
2214060,656,55
2214070,278,55
2214077,270,55
2214091,329,55
2214097,314,55
2214110,314,55
2214122,316,55
2214128,315,55
2214142,318,55
2214151,324,55
2214161,325,55
2214173,325,55
2214178,328,55
2214193,331,55
2214204,334,55
2214211,340,55
2214224,341,55
2214234,345,55
2214244,346,55
2214255,353,55
2214261,359,55
2214276,367,55
2214285,373,55
2214295,383,55
2214295,390,55
2214317,393,55
2214327,397,55
2214337,393,55
2214345,384,55
2214357,367,55
2214361,346,55
2214378,330,55
2214384,317,55
2214393,308,55
2214409,305,55
2214419,305,55
2214429,301,55
2214437,304,55
2214450,305,55
2214461,307,55
2214470,312,55
2214470,306,55
2214487,311,55
2214502,307,55
2214503,308,55
2214520,312,55
2214532,313,55
2214538,311,55
2214553,312,55
2214563,312,55
2214570,305,55
2214570,311,55
2214586,311,55
2214604,310,55
2214615,308,55
2214625,311,55
2214635,314,55
2214646,313,55
2214654,314,55
2214666,314,55
2214670,312,55
2214686,315,55
2214691,317,55
2214703,312,55
2214718,318,55
2214724,322,55
2214737,315,55
2214737,317,55
2214759,320,55
2214768,320,55
2214778,319,55
2214787,323,55
2214800,325,55
2214803,320,55
2214820,327,55
2214831,323,55
2214837,324,55
2214851,323,55
2214861,327,55
2214870,329,55
2214881,327,55
2214891,325,55
2214891,329,55
2214913,330,55
2214920,329,55
2214933,331,55
2214943,328,55
2214953,335,55
2214964,330,55
2214970,329,55
2214984,338,55
2214995,347,55
2215003,352,55
2215015,343,55
2215022,342,55
2215037,331,55
2215046,328,55
2215053,332,55
2215067,332,55
2215069,327,55
2215086,332,55
2215098,329,55
2215104,318,55
2215104,356,55
2215121,584,55
2215137,659,55
2215149,639,55
2215159,220,55
2215170,283,55
2215180,322,55
2215187,310,55
2215200,308,55
2215210,312,55
2215221,318,55
2215231,319,55
2215241,320,55
2215252,324,55
2215261,326,55
2215271,332,55
2215282,332,55
2215289,334,55
2215303,344,55
2215303,345,55
2215321,346,55
2215334,354,55
2215337,359,55
2215353,367,55
2215365,375,55
2215370,383,55
2215385,396,55
2215390,400,55
2215403,406,55
2215415,408,55
2215426,398,55
2215436,383,55
2215446,358,55
2215453,339,55
2215467,321,55
2215470,305,55
2215486,299,55
2215498,292,55
2215503,294,55
2215519,295,55
2215529,294,55
2215537,293,55
2215549,295,55
2215560,300,55
2215570,299,55
2215580,304,55
2215587,300,55
2215592,306,55
2215606,310,55
2215621,303,55
2215630,306,55
2215637,304,55
2215637,304,55
2215653,305,55
2215671,303,55
2215683,303,55
2215688,303,55
2215703,302,55
2215714,304,55
2215724,303,55
2215734,302,55
2215745,304,55
2215755,304,55
2215765,305,55
2215776,309,55
2215786,305,55
2215796,308,55
2215805,308,55
2215805,309,55
2215827,309,55
2215837,310,55
2215847,310,55
2215853,313,55
2215868,314,55
2215878,309,55
2215887,314,55
2215899,319,55
2215903,314,55
2215920,321,55
2215929,335,55
2215940,334,55
2215950,328,55
2215954,329,55
2215969,323,55
2215969,317,55
2215991,316,55
2216002,318,55
2216012,318,55
2216021,322,55
2216032,316,55
2216036,312,55
2216052,340,55
2216052,539,56
2216068,659,56
2216083,643,56
2216093,224,56
2216105,270,56
2216111,321,56
2216121,306,56
2216135,305,56
2216143,306,56
2216143,312,56
2216165,314,56
2216177,315,56
2216186,320,56
2216195,323,56
2216207,325,56
2216218,328,56
2216228,332,56
2216238,338,56
2216248,339,56
2216258,344,56
2216269,348,56
2216276,356,56
2216289,361,56
2216294,368,56
2216310,378,56
2216320,388,56
2216326,392,56
2216336,399,56
2216351,398,56
2216359,388,56
2216372,372,56
2216376,353,56
2216393,330,56
2216402,316,56
2216411,309,56
2216422,303,56
2216426,298,56
2216443,297,56
2216452,300,56
2216461,297,56
2216474,301,56
2216476,303,56
2216494,303,56
2216505,305,56
2216515,306,56
2216526,308,56
2216536,309,56
2216543,307,56
2216556,310,56
2216563,310,56
2216575,306,56
2216580,310,56
2216593,310,56
2216607,310,56
2216610,312,56
2216625,306,56
2216636,309,56
2216642,312,56
2216659,308,56
2216659,313,56
2216677,313,56
2216690,312,56
2216692,314,56
2216709,314,56
2216721,314,56
2216725,318,56
2216741,313,56
2216752,317,56
2216759,319,56
2216772,320,56
2216782,322,56
2216784,323,56
2216803,321,56
2216812,324,56
2216824,326,56
2216834,323,56
2216843,326,56
2216855,326,56
2216861,326,56
2216861,325,56
2216885,329,56
2216893,327,56
2216906,332,56
2216915,326,56
2216926,330,56
2216936,331,56
2216944,333,56
2216957,335,56
2216967,333,56
2216976,335,56
2216988,335,56
2216998,333,56
2217009,336,56
2217019,351,56
2217028,350,56
2217033,346,56
2217050,346,56
2217059,338,56
2217070,334,56
2217081,335,56
2217091,331,56
2217101,331,56
2217110,334,56
2217122,331,56
2217132,323,56
2217143,365,56
2217147,571,56
2217159,659,56
2217172,624,56
2217183,225,56
2217193,294,56
2217194,329,56
2217210,309,56
2217222,312,56
2217227,317,56
2217244,315,56
2217255,322,56
2217265,324,56
2217275,327,56
2217286,330,56
2217293,328,56
2217307,336,56
2217317,336,56
2217326,338,56
2217338,346,56
2217343,347,56
2217343,353,56
2217360,358,56
2217376,367,56
2217389,372,56
2217400,378,56
2217409,389,56
2217420,391,56
2217426,395,56
2217440,398,56
2217445,395,56
2217460,379,56
2217460,361,56
2217476,343,56
2217487,329,56
2217502,313,56
2217510,311,56
2217522,309,56
2217533,308,56
2217543,308,56
2217553,305,56
2217559,309,56
2217574,306,56
2217580,313,56
2217593,309,56
2217604,311,56
2217609,312,56
2217624,311,56
2217635,312,56
2217643,310,56
2217656,311,56
2217660,311,56
2217675,309,56
2217687,314,56
2217693,312,56
2217707,313,56
2217718,310,56
2217727,313,56
2217727,312,56
2217748,313,56
2217759,312,56
2217769,317,56
2217778,311,56
2217784,313,56
2217800,314,56
2217810,315,56
2217820,316,56
2217830,314,56
2217841,317,56
2217851,320,56
2217861,319,56
2217872,322,56
2217877,323,56
2217892,318,56
2217892,323,56
2217912,323,56
2217923,322,56
2217933,324,56
2217943,324,56
2217954,330,56
2217959,326,56
2217975,327,56
2217984,327,56
2217993,330,56
2218005,331,56
2218009,328,56
2218026,333,56
2218036,333,56
2218043,331,56
2218057,336,56
2218067,335,56
2218077,337,56
2218077,347,56
2218093,352,56
2218108,347,56
2218118,344,56
2218126,338,56
2218139,336,56
2218142,330,56
2218159,333,56
2218170,332,56
2218180,335,56
2218191,335,56
2218200,330,56
2218209,326,56
2218221,462,56
2218226,658,55
2218241,659,55
2218252,369,55
2218259,231,55
2218273,320,55
2218278,320,55
2218293,315,55
2218303,314,55
2218309,313,55
2218323,322,55
2218334,324,55
2218343,322,55
2218354,328,55
2218361,331,55
2218361,335,55
2218385,338,55
2218394,342,55
2218406,342,55
2218410,346,55
2218426,353,55
2218434,357,55
2218443,363,55
2218457,370,55
2218460,380,55
2218476,390,55
2218484,400,55
2218494,404,55
2218509,403,55
2218509,404,55
2218526,392,55
2218534,370,55
2218543,345,55
2218560,328,55
2218571,315,55
2218576,302,55
2218585,298,55
2218593,296,55
2218610,296,55
2218622,296,55
2218625,299,55
2218642,299,55
2218653,300,55
2218659,299,55
2218672,305,55
2218683,303,55
2218693,303,55
2218693,306,55
2218710,305,55
2218725,306,55
2218734,306,55
2218743,304,55
2218755,305,55
2218760,304,55
2218776,303,55
2218784,305,55
2218793,303,55
2218807,306,55
2218810,305,55
2218826,302,55
2218837,305,55
2218848,308,55
2218858,311,55
2218861,307,55
2218876,308,55
2218889,311,55
2218900,308,55
2218910,313,55
2218920,315,55
2218926,315,55
2218941,315,55
2218950,314,55
2218960,315,55
2218971,317,55
2218976,317,55
2218986,320,55
2219002,320,55
2219010,318,55
2219022,322,55
2219033,323,55
2219043,322,55
2219053,323,55
2219060,325,55
2219074,326,55
2219084,329,55
2219093,325,55
2219104,323,55
2219111,327,55
2219125,346,55
2219126,341,55
2219142,338,55
2219156,339,55
2219160,328,55
2219177,329,55
2219186,328,55
2219193,326,55
2219207,329,55
2219218,327,55
2219226,328,55
2219238,321,55
2219248,332,55
2219258,488,55
2219265,658,56
2219279,657,56
2219289,295,56
2219300,251,56
2219309,323,56
2219320,311,56
2219327,306,56
2219341,308,56
2219351,311,56
2219360,315,56
2219371,320,56
2219382,320,56
2219392,325,56
2219403,324,56
2219410,328,56
2219422,332,56
2219433,335,56
2219443,338,56
2219454,348,56
2219464,347,56
2219475,354,56
2219482,361,56
2219492,364,56
2219505,377,56
2219515,384,56
2219525,390,56
2219529,397,56
2219543,390,56
2219557,395,56
2219567,381,56
2219576,359,56
2219588,341,56
2219597,322,56
2219608,307,56
2219618,304,56
2219626,300,56
2219639,297,56
2219649,295,56
2219660,297,56
2219669,301,56
2219676,300,56
2219691,302,56
2219694,306,56
2219709,304,56
2219721,308,56
2219732,307,56
2219742,307,56
2219752,309,56
2219759,308,56
2219773,308,56
2219781,308,56
2219793,309,56
2219794,308,56
2219810,308,56
2219810,308,56
2219834,310,56
2219842,309,56
2219855,311,56
2219861,309,56
2219861,313,56
2219885,315,56
2219893,311,56
2219906,316,56
2219916,314,56
2219927,318,56
2219936,316,56
2219944,316,56
2219944,321,56
2219968,319,56
2219977,322,56
2219988,322,56
2219993,323,56
2220009,323,56
2220010,328,56
2220028,324,56
2220039,328,56
2220050,328,56
2220059,327,56
2220071,328,56
2220076,326,56
2220091,328,56
2220093,331,56
2220110,330,56
2220110,332,56
2220127,332,56
2220142,333,56
2220153,334,56
2220159,333,56
2220159,334,56
2220176,337,56
2220192,335,56
2220204,338,56
2220210,334,56
2220225,339,56
2220232,338,56
2220243,338,56
2220255,341,56
2220266,352,56
2220276,359,56
2220286,352,56
2220293,348,56
2220307,343,56
2220317,342,56
2220326,335,56
2220338,337,56
2220343,334,56
2220343,338,56
2220368,338,56
2220375,330,56
2220389,341,56
2220400,505,55
2220410,659,55
2220410,658,55
2220427,325,55
2220440,249,55
2220443,331,55
2220458,318,55
2220471,314,55
2220476,321,55
2220491,322,55
2220502,324,55
2220510,326,55
2220510,328,55
2220533,331,55
2220543,333,55
2220553,334,55
2220564,338,55
2220574,343,55
2220584,345,55
2220592,347,55
2220605,352,55
2220614,363,55
2220625,366,55
2220636,376,55
2220642,377,55
2220642,390,55
2220666,402,55
2220675,407,55
2220686,409,55
2220692,404,55
2220692,395,55
2220718,369,55
2220727,348,55
2220735,330,55
2220749,312,55
2220759,303,55
2220760,299,55
2220776,296,55
2220789,299,55
2220800,295,55
2220809,298,55
2220820,297,55
2220831,300,55
2220841,298,55
2220851,301,55
2220860,303,55
2220872,305,55
2220876,302,55
2220892,303,55
2220903,303,55
2220910,307,55
2220923,309,55
2220934,303,55
2220942,303,55
2220954,303,55
2220959,303,55
2220975,301,55
2220985,304,55
2220994,302,55
2221005,305,55
2221016,304,55
2221026,305,55
2221031,306,55
2221043,305,55
2221057,306,55
2221059,308,55
2221076,311,55
2221088,310,55
2221093,309,55
2221108,310,55
2221111,314,55
2221126,310,55
2221137,312,55
2221146,320,55
2221159,312,55
2221170,315,55
2221180,316,55
2221191,319,55
2221200,320,55
2221209,321,55
2221221,323,55
2221232,322,55
2221241,321,55
2221252,324,55
2221259,323,55
2221273,324,55
2221282,322,55
2221294,323,55
2221294,326,55
2221310,326,55
2221310,326,55
2221334,326,55
2221343,328,55
2221355,348,55
2221359,342,55
2221375,339,55
2221386,335,55
2221393,326,55
2221405,328,55
2221408,328,55
2221427,325,55
2221436,326,55
2221443,326,55
2221443,330,55
2221468,320,55
2221476,335,55
2221484,522,56
2221493,659,56
2221509,657,56
2221519,264,56
2221526,260,56
2221539,323,56
2221550,308,56
2221560,306,56
2221571,313,56
2221580,316,56
2221591,314,56
2221593,319,56
2221611,317,56
2221611,324,56
2221632,326,56
2221642,326,56
2221653,333,56
2221659,337,56
2221673,340,56
2221683,345,56
2221693,346,56
2221694,355,56
2221714,362,56
2221725,369,56
2221734,379,56
2221743,387,56
2221755,394,56
2221766,400,56
2221775,400,56
2221786,400,56
2221793,384,56
2221793,358,56
2221811,343,56
2221827,322,56
2221838,310,56
2221843,299,56
2221859,296,56
2221860,298,56
2221876,295,56
2221886,297,56
2221893,298,56
2221909,300,56
2221920,300,56
2221927,304,56
2221941,304,56
2221945,304,56
2221960,305,56
2221971,309,56
2221976,310,56
2221993,309,56
2222001,310,56
2222009,310,56
2222023,311,56
2222033,309,56
2222043,307,56
2222053,310,56
2222059,312,56
2222074,309,56
2222079,310,56
2222093,312,56
2222093,313,56
2222115,314,56
2222125,313,56
2222136,316,56
2222143,314,56
2222143,316,56
2222159,316,56
2222175,317,56
2222185,318,56
2222195,316,56
2222207,320,56
2222218,322,56
2222227,317,56
2222238,321,56
2222249,323,56
2222259,326,56
2222269,321,56
2222278,321,56
2222288,326,56
2222300,326,56
2222310,324,56
2222321,329,56
2222331,328,56
2222341,324,56
2222352,330,56
2222360,328,56
2222372,328,56
2222381,328,56
2222393,329,56
2222393,329,56
2222410,327,56
2222423,332,56
2222434,330,56
2222443,330,56
2222454,333,56
2222460,331,56
2222460,337,56
2222485,349,56
2222493,350,56
2222505,343,56
2222509,342,56
2222526,332,56
2222536,331,56
2222542,330,56
2222557,329,56
2222567,330,56
2222576,331,56
2222587,332,56
2222598,322,56
2222608,366,56
2222618,601,56
2222629,659,56
2222639,599,56
2222649,215,56
2222660,295,56
2222670,322,56
2222676,307,56
2222691,306,56
2222700,315,56
2222709,315,56
2222721,315,56
2222732,321,56
2222742,321,56
2222752,326,56
2222759,329,56
2222773,331,56
2222782,334,56
2222794,333,56
2222803,341,56
2222810,345,56
2222810,351,56
2222834,356,56
2222843,361,56
2222855,369,56
2222865,376,56
2222875,388,56
2222885,394,56
2222893,400,56
2222893,398,56
2222916,394,56
2222925,380,56
2222937,359,56
2222944,334,56
2222957,317,56
2222968,309,56
2222977,303,56
2222988,302,56
2222999,299,56
2223009,300,56
2223018,300,56
2223029,299,56
2223029,301,56
2223044,303,56
2223059,303,56
2223059,304,56
2223077,306,56
2223091,308,56
2223093,309,56
2223109,308,56
2223122,310,56
2223132,308,56
2223143,308,56
2223143,310,56
2223159,306,56
2223173,305,56
2223176,307,56
2223193,307,56
2223204,311,56
2223210,309,56
2223224,308,56
2223232,309,56
2223243,308,56
2223256,312,56
2223266,312,56
2223275,313,56
2223281,310,56
2223293,314,56
2223307,316,56
2223317,313,56
2223326,317,56
2223338,319,56
2223343,319,56
2223358,319,56
2223369,320,56
2223376,318,56
2223389,322,56
2223393,325,56
2223409,323,56
2223420,325,56
2223428,320,56
2223441,323,56
2223451,324,56
2223460,324,56
2223460,327,56
2223476,328,56
2223486,326,56
2223502,332,56
2223510,326,56
2223523,330,56
2223532,332,56
2223543,331,56
2223543,331,56
2223559,333,56
2223559,332,56
2223577,334,56
2223593,335,56
2223593,335,56
2223610,333,56
2223625,339,56
2223635,352,56
2223642,349,56
2223656,349,56
2223667,343,56
2223676,336,56
2223687,335,56
2223694,333,56
2223707,334,56
2223710,335,56
2223728,336,56
2223736,333,56
2223744,323,56
2223744,367,56
2223769,570,55
2223777,659,55
2223786,628,55
2223800,230,55
2223809,292,55
2223821,330,55
2223828,311,55
2223841,312,55
2223852,316,55
2223859,315,55
2223859,323,55
2223877,325,55
2223893,324,55
2223903,331,55
2223910,333,55
2223923,334,55
2223932,338,55
2223942,344,55
2223954,348,55
2223959,347,55
2223975,354,55
2223981,357,55
2223993,364,55
2224006,373,55
2224016,384,55
2224025,391,55
2224036,399,55
2224043,403,55
2224057,400,55
2224067,401,55
2224076,389,55
2224088,366,55
2224097,349,55
2224109,330,55
2224119,316,55
2224128,310,55
2224139,306,55
2224150,304,55
2224160,303,55
2224170,302,55
2224176,309,55
2224191,305,55
2224201,306,55
2224209,308,55
2224221,310,55
2224231,311,55
2224241,309,55
2224252,311,55
2224259,311,55
2224272,306,55
2224278,312,55
2224293,309,55
2224303,310,55
2224310,312,55
2224324,312,55
2224335,312,55
2224342,306,55
2224355,312,55
2224365,318,55
2224375,309,55
2224386,315,55
2224393,314,55
2224393,312,55
2224416,315,55
2224425,314,55
2224437,317,55
2224444,318,55
2224457,318,55
2224468,323,55
2224477,317,55
2224488,318,55
2224499,321,55
2224509,322,55
2224519,323,55
2224529,321,55
2224539,322,55
2224544,322,55
2224559,324,55
2224571,328,55
2224577,321,55
2224586,326,55
2224602,328,55
2224611,330,55
2224621,325,55
2224632,329,55
2224643,327,55
2224653,335,55
2224659,329,55
2224673,326,55
2224684,341,55
2224694,350,55
2224695,344,55
2224711,337,55
2224711,332,55
2224734,330,55
2224743,327,55
2224756,329,55
2224759,326,55
2224776,324,55
2224786,329,55
2224793,320,55
2224807,318,55
2224809,440,55
2224826,658,55
2224838,659,55
2224842,392,55
2224858,218,55
2224861,314,55
2224877,310,55
2224889,309,55
2224896,312,55
2224909,309,55
2224920,316,55
2224929,319,55
2224940,320,55
2224944,326,55
2224959,324,55
2224971,328,55
2224976,336,55
2224992,335,55
2225002,339,55
2225010,343,55
2225010,350,55
2225029,354,55
2225042,360,55
2225053,369,55
2225059,376,55
2225074,386,55
2225083,398,55
2225092,402,55
2225105,406,55
2225110,404,55
2225125,388,55
2225136,369,55
2225145,347,55
2225156,322,55
2225159,309,55
2225176,297,55
2225186,292,55
2225193,289,55
2225207,289,55
2225210,292,55
2225227,289,55
2225239,289,55
2225244,295,55
2225259,292,55
2225269,297,55
2225275,298,55
2225290,299,55
2225300,302,55
2225310,300,55
2225321,303,55
2225331,300,55
2225341,302,55
2225352,303,55
2225361,299,55
2225372,302,55
2225382,301,55
2225392,298,55
2225403,304,55
2225409,301,55
2225423,302,55
2225434,306,55
2225443,305,55
2225454,307,55
2225460,306,55
2225475,309,55
2225476,304,55
2225493,305,55
2225505,309,55
2225510,310,55
2225526,308,55
2225536,310,55
2225543,314,55
2225543,310,55
2225567,313,55
2225576,314,55
2225588,311,55
2225593,317,55
2225608,318,55
2225609,317,55
2225628,319,55
2225639,317,55
2225649,320,55
2225659,325,55
2225670,324,55
2225677,321,55
2225687,320,55
2225701,332,55
2225709,341,55
2225721,341,55
2225731,338,55
2225742,335,55
2225752,331,55
2225760,327,55
2225760,325,55
2225782,326,55
2225792,326,55
2225803,326,55
2225809,330,55
2225824,315,55
2225834,355,55
2225842,561,55
2225855,659,55
2225860,635,55
2225876,226,55
2225885,283,55
2225892,325,55
2225906,310,55
2225916,311,55
2225926,314,55
2225937,317,55
2225944,317,55
2225951,320,55
2225968,325,55
2225976,324,55
2225988,329,55
2225999,332,55
2226009,335,55
2226019,341,55
2226028,339,55
2226034,345,55
2226050,354,55
2226060,357,55
2226071,364,55
2226081,374,55
2226091,380,55
2226102,392,55
2226111,395,55
2226122,400,55
2226132,401,55
2226142,394,55
2226153,382,55
2226160,360,55
2226173,339,55
2226184,326,55
2226194,309,55
2226204,308,55
2226214,303,55
2226225,300,55
2226230,302,55
2226244,302,55
2226255,301,55
2226266,304,55
2226276,307,55
2226286,308,55
2226293,310,55
2226306,311,55
2226317,309,55
2226326,311,55
2226338,312,55
2226347,311,55
2226359,316,55
2226369,307,55
2226377,311,55
2226390,313,55
2226400,311,55
2226409,312,55
2226419,313,55
2226426,310,55
2226441,312,55
2226450,316,55
2226460,314,55
2226471,312,55
2226482,317,55
2226491,315,55
2226502,317,55
2226510,316,55
2226523,317,55
2226532,317,55
2226543,319,55
2226554,325,55
2226562,321,55
2226574,319,55
2226584,322,55
2226593,322,55
2226605,323,55
2226616,326,55
2226625,329,55
2226636,324,55
2226643,325,55
2226657,327,55
2226660,326,55
2226676,329,55
2226687,328,55
2226692,329,55
2226708,328,55
2226709,333,55
2226727,330,55
2226739,333,55
2226743,328,55
2226759,328,55
2226759,336,55
2226780,330,55
2226789,329,55
2226800,336,55
2226809,331,55
2226821,334,55
2226831,349,55
2226842,347,55
2226852,346,55
2226859,344,55
2226872,336,55
2226882,333,55
2226893,328,55
2226902,331,55
2226910,332,55
2226910,330,55
2226934,334,55
2226944,327,55
2226955,343,55
2226960,511,55
2226975,658,55
2226985,656,55
2226994,270,55
2227005,269,55
2227009,327,55
2227025,312,55
2227037,315,55
2227043,317,55
2227043,313,55
2227067,321,55
2227076,323,55
2227088,324,55
2227093,328,55
2227108,332,55
2227110,332,55
2227127,336,55
2227139,340,55
2227143,340,55
2227159,345,55
2227170,352,55
2227177,355,55
2227183,361,55
2227195,372,55
2227209,376,55
2227221,385,55
2227232,392,55
2227242,395,55
2227252,400,55
2227259,398,55
2227273,385,55
2227280,369,55
2227292,349,55
2227303,335,55
2227309,319,55
2227309,308,55
2227334,305,55
2227343,306,55
2227343,306,55
2227359,306,55
2227375,306,55
2227386,303,55
2227393,307,55
2227407,308,55
2227410,309,55
2227426,312,55
2227437,312,55
2227444,310,55
2227457,310,55
2227460,314,55
2227476,311,55
2227489,311,55
2227499,312,55
2227509,308,55
2227509,311,55
2227527,312,55
2227539,312,55
2227542,314,55
2227559,313,55
2227571,312,55
2227576,315,55
2227591,318,55
2227601,318,55
2227609,319,55
2227622,317,55
2227632,320,55
2227643,318,55
2227643,317,55
2227660,323,55
2227673,323,55
2227676,326,55
2227693,323,55
2227704,319,55
2227709,327,55
2227725,325,55
2227735,325,55
2227743,325,55
2227756,327,55
2227766,330,55
2227776,328,55
2227786,326,55
2227793,329,55
2227793,328,55
2227817,333,55
2227826,333,55
2227838,331,55
2227843,330,55
2227858,333,55
2227869,333,55
2227876,335,55
2227883,331,55
2227893,341,55
2227910,350,55
2227920,349,55
2227926,346,55
2227941,338,55
2227951,337,55
2227960,332,55
2227971,332,55
2227982,334,55
2227991,329,55
2228002,336,55
2228011,329,55
2228011,318,55
2228032,404,55
2228042,657,55
2228053,659,55
2228059,510,55
2228073,206,55
2228084,309,55
2228092,320,55
2228105,313,55
2228115,314,55
2228125,316,55
2228136,325,55
2228145,322,55
2228156,324,55
2228167,328,55
2228175,332,55
2228187,331,55
2228194,337,55
2228194,337,55
2228218,347,55
2228228,348,55
2228238,353,55
2228248,358,55
2228259,365,55
2228269,375,55
2228276,383,55
2228289,390,55
2228300,400,55
2228310,405,55
2228321,408,55
2228331,412,55
2228341,400,55
2228351,379,55
2228361,353,55
2228372,334,55
2228382,316,55
2228393,304,55
2228403,297,55
2228409,297,55
2228423,295,55
2228434,289,55
2228444,292,55
2228454,292,55
2228459,295,55
2228475,299,55
2228479,301,55
2228495,297,55
2228505,298,55
2228510,305,55
2228526,302,55
2228536,301,55
2228543,304,55
2228543,302,55
2228567,302,55
2228576,303,55
2228585,299,55
2228593,301,55
2228608,300,55
2228619,300,55
2228626,301,55
2228639,304,55
2228650,304,55
2228659,300,55
2228670,303,55
2228679,305,55
2228691,302,55
2228700,302,55
2228709,307,55
2228721,306,55
2228729,308,55
2228742,304,55
2228752,310,55
2228760,313,55
2228773,312,55
2228783,312,55
2228793,308,55
2228794,319,55
2228810,312,55
2228824,311,55
2228834,324,55
2228842,334,55
2228842,330,55
2228861,330,55
2228875,329,55
2228886,320,55
2228893,321,55
2228906,316,55
2228917,317,55
2228927,320,55
2228937,316,55
2228945,319,55
2228945,308,55
2228960,339,55
2228976,542,55
2228988,658,55
2228998,640,55
2229009,220,55
2229019,269,55
2229027,317,55
2229039,306,55
2229050,303,55
2229060,306,55
2229071,310,55
2229081,316,55
2229091,313,55
2229102,319,55
2229111,323,55
2229111,324,55
2229132,327,55
2229143,327,55
2229143,331,55
2229160,342,55
2229173,339,55
2229184,348,55
2229192,355,55
2229204,359,55
2229215,367,55
2229225,379,55
2229235,385,55
2229243,392,55
2229255,397,55
2229266,400,55
2229276,393,55
2229278,374,55
2229293,352,55
2229307,331,55
2229317,317,55
2229326,305,55
2229338,297,55
2229348,293,55
2229358,298,55
2229369,297,55
2229377,294,55
2229389,297,55
2229400,299,55
2229409,300,55
2229420,298,55
2229426,302,55
2229441,304,55
2229451,305,55
2229460,304,55
2229471,307,55
2229476,309,55
2229492,305,55
2229494,304,55
2229509,309,55
2229523,305,55
2229528,308,55
2229543,304,55
2229553,310,55
2229559,311,55
2229574,306,55
2229584,310,55
2229594,311,55
2229594,308,55
2229609,312,55
2229626,312,55
2229635,314,55
2229643,316,55
2229656,315,55
2229666,318,55
2229676,316,55
2229687,319,55
2229692,317,55
2229692,316,55
2229718,322,55
2229726,322,55
2229739,319,55
2229748,321,55
2229759,324,55
2229768,321,55
2229777,324,55
2229789,322,55
2229800,328,55
2229810,327,55
2229810,327,55
2229831,329,55
2229841,329,55
2229851,329,55
2229859,329,55
2229859,329,55
2229877,331,55
2229893,330,55
2229893,330,55
2229910,331,55
2229923,334,55
2229933,336,55
2229942,332,55
2229955,333,55
2229965,344,55
2229975,354,55
2229982,351,55
2229991,346,55
2229991,339,55
2230007,335,55
2230025,334,55
2230036,330,55
2230036,335,55
2230050,330,55
2230066,333,55
2230078,329,55
2230088,326,55
2230098,386,55
2230108,613,55
2230116,658,55
2230128,552,55
2230139,216,55
2230150,308,55
2230160,322,55
2230167,309,55
2230180,308,55
2230190,315,55
2230199,316,55
2230211,315,55
2230216,317,55
2230232,324,55
2230236,325,55
2230250,327,55
2230262,333,55
2230266,336,55
2230283,335,55
2230293,339,55
2230304,345,55
2230314,349,55
2230324,356,55
2230335,359,55
2230345,367,55
2230355,375,55
2230365,381,55
2230376,390,55
2230382,392,55
2230396,392,55
2230399,391,55
2230415,378,55
2230427,359,55
2230436,341,55
2230447,321,55
2230458,315,55
2230467,302,55
2230467,302,55
2230483,301,55
2230493,302,55
2230501,301,55
2230518,306,55
2230518,307,55
2230537,306,55
2230549,303,55
2230560,308,55
2230566,307,55
2230581,308,55
2230591,310,55
2230599,308,55
2230610,312,55
2230622,309,55
2230632,309,55
2230643,307,55
2230649,305,55
2230663,310,55
2230674,307,55
2230683,309,55
2230694,310,55
2230701,309,55
2230714,310,55
2230716,310,55
2230733,315,55
2230742,311,55
2230751,311,55
2230751,315,55
2230767,312,55
2230783,312,55
2230796,315,55
2230800,317,55
2230816,316,55
2230828,317,55
2230837,317,55
2230849,321,55
2230859,319,55
2230866,321,55
2230879,320,55
2230888,320,55
2230899,324,55
2230910,323,55
2230916,322,55
2230930,328,55
2230940,326,55
2230951,327,55
2230951,329,55
2230967,329,55
2230982,329,55
2230992,326,55
2230999,330,55
2230999,335,55
2231023,329,55
2231033,332,55
2231041,332,55
2231050,333,55
2231064,334,55
2231066,334,55
2231085,334,55
2231093,338,55
2231100,336,55
2231115,335,55
2231116,336,55
2231134,344,55
2231145,353,55
2231156,345,55
2231166,350,55
2231177,344,55
2231183,335,55
2231197,337,55
2231208,335,55
2231216,336,55
2231216,333,55
2231237,334,55
2231248,335,55
2231260,326,55
2231266,430,55
2231280,658,55
2231287,659,55
2231300,447,55
2231310,224,55
2231316,320,55
2231316,322,55
2231341,311,55
2231350,316,55
2231362,319,55
2231366,321,55
2231383,323,55
2231390,323,55
2231400,328,55
2231413,332,55
2231418,336,55
2231432,337,55
2231444,340,55
2231449,341,55
2231464,347,55
2231467,353,55
2231482,356,55
2231495,361,55
2231505,368,55
2231516,376,55
2231526,387,55
2231535,395,55
2231546,397,55
2231557,402,55
2231567,407,55
2231578,398,55
2231587,379,55
2231598,360,55
2231608,339,55
2231618,328,55
2231628,315,55
2231639,301,55
2231650,303,55
2231650,299,55
2231665,301,55
2231680,303,55
2231683,301,55
2231700,305,55
2231711,305,55
2231718,305,55
2231732,309,55
2231742,310,55
2231749,306,55
2231762,310,55
2231773,308,55
2231783,308,55
2231793,306,55
2231800,308,55
2231814,308,55
2231816,307,55
2231832,307,55
2231845,309,55
2231850,307,55
2231865,310,55
2231876,308,55
2231883,310,55
2231896,308,55
2231900,308,55
2231916,310,55
2231927,310,55
2231932,308,55
2231947,313,55
2231951,311,55
2231965,308,55
2231978,314,55
2231989,315,55
2231998,316,55
2232000,317,55
2232016,313,55
2232029,321,55
2232038,318,55
2232050,315,55
2232060,318,55
2232066,317,55
2232066,321,55
2232083,323,55
2232099,320,55
2232111,318,55
2232122,321,55
2232132,326,55
2232142,322,55
2232149,319,55
2232162,324,55
2232173,335,55
2232183,344,55
2232193,338,55
2232199,332,55
2232199,330,55
2232225,325,55
2232232,324,55
2232245,325,55
2232250,323,55
2232266,325,55
2232276,328,55
2232282,314,55
2232296,336,55
2232300,515,55
2232316,659,55
2232328,656,55
2232334,248,55
2232348,255,55
2232358,317,55
2232368,308,55
2232378,304,55
2232389,307,55
2232400,309,55
2232400,312,55
2232418,319,55
2232430,318,55
2232441,323,55
2232449,322,55
2232461,330,55
2232465,331,55
2232482,333,55
2232488,339,55
2232501,343,55
2232512,348,55
2232523,353,55
2232533,362,55
2232541,367,55
2232550,377,55
2232564,387,55
2232569,392,55
2232583,398,55
2232595,399,55
2232605,397,55
2232616,384,55
2232616,360,55
2232635,336,55
2232646,324,55
2232655,305,55
2232666,300,55
2232676,296,55
2232686,292,55
2232697,295,55
2232706,293,55
2232716,292,55
2232727,298,55
2232738,297,55
2232749,301,55
2232759,304,55
2232766,308,55
2232766,305,55
2232790,304,55
2232799,307,55
2232810,306,55
2232816,307,55
2232816,308,55
2232839,307,55
2232850,306,55
2232861,310,55
2232870,307,55
2232875,306,55
2232892,306,55
2232902,308,55
2232912,313,55
2232917,308,55
2232932,312,55
2232944,311,55
2232951,311,55
2232964,311,55
2232972,313,55
2232981,315,55
2232986,316,55
2233006,317,55
2233016,319,55
2233025,319,55
2233036,317,55
2233047,322,55
2233056,319,55
2233064,324,55
2233077,324,55
2233087,321,55
2233098,323,55
2233107,324,55
2233119,325,55
2233129,328,55
2233139,324,55
2233150,328,55
2233159,326,55
2233169,326,55
2233176,329,55
2233191,332,55
2233201,330,55
2233209,329,55
2233221,333,55
2233226,335,55
2233242,335,55
2233252,329,55
2233258,336,55
2233272,352,55
2233283,350,55
2233292,349,55
2233292,344,55
2233310,339,55
2233324,335,55
2233333,332,55
2233342,331,55
2233355,330,55
2233359,334,55
2233375,337,55
2233385,326,55
2233391,346,55
2233391,520,55
2233417,659,55
2233426,655,55
2233437,266,55
2233444,272,55
2233458,328,55
2233468,314,55
2233476,314,55
2233489,316,55
2233492,320,55
2233508,320,55
2233519,323,55
2233528,327,55
2233528,328,55
2233542,331,55
2233560,337,55
2233571,340,55
2233576,337,55
2233591,345,55
2233601,350,55
2233608,353,55
2233622,353,55
2233632,362,55
2233642,375,55
2233653,378,55
2233659,387,55
2233673,392,55
2233683,399,55
2233694,399,55
2233695,396,55
2233710,386,55
2233725,368,55
2233735,349,55
2233743,331,55
2233756,315,55
2233765,308,55
2233776,310,55
2233786,301,55
2233796,303,55
2233807,305,55
2233816,302,55
2233826,309,55
2233838,302,55
2233848,307,55
2233859,309,55
2233869,309,55
2233876,310,55
2233889,309,55
2233900,308,55
2233909,310,55
2233920,309,55
2233926,309,55
2233941,311,55
2233944,310,55
2233959,309,55
2233971,311,55
2233982,309,55
2233991,310,55
2234002,311,55
2234010,312,55
2234023,311,55
2234032,312,55
2234042,316,55
2234053,312,55
2234064,314,55
2234074,317,55
2234085,317,55
2234092,319,55
2234105,319,55
2234115,320,55
2234125,322,55
2234136,319,55
2234145,322,55
2234156,323,55
2234166,317,55
2234175,322,55
2234188,321,55
2234197,324,55
2234208,324,55
2234218,325,55
2234226,324,55
2234226,327,55
2234243,327,55
2234259,328,55
2234269,323,55
2234277,327,55
2234290,328,55
2234301,329,55
2234310,331,55
2234321,332,55
2234331,331,55
2234341,328,55
2234351,328,55
2234358,330,55
2234372,340,55
2234382,347,55
2234393,343,55
2234403,344,55
2234413,340,55
2234423,336,55
2234434,332,55
2234444,331,55
2234444,329,55
2234465,333,55
2234474,332,55
2234485,328,55
2234493,334,55
2234506,487,55
2234510,658,55
2234526,658,55
2234533,320,55
2234543,243,55
2234557,327,55
2234567,315,55
2234575,310,55
2234588,317,55
2234598,316,55
2234608,320,55
2234611,322,55
2234626,328,55
2234640,325,55
2234650,329,55
2234659,333,55
2234670,335,55
2234676,338,55
2234691,342,55
2234701,346,55
2234709,354,55
2234721,357,55
2234731,364,55
2234741,376,55
2234752,378,55
2234759,392,55
2234773,398,55
2234778,404,55
2234793,409,55
2234803,409,55
2234809,394,55
2234824,376,55
2234834,350,55
2234842,329,55
2234856,314,55
2234860,302,55
2234875,302,55
2234886,295,55
2234892,293,55
2234906,294,55
2234917,294,55
2234925,297,55
2234937,298,55
2234944,296,55
2234958,299,55
2234968,301,55
2234976,303,55
2234989,305,55
2234993,299,55
2235009,311,55
2235019,302,55
2235026,303,55
2235035,302,55
2235050,300,55
2235058,305,55
2235071,303,55
2235081,301,55
2235092,306,55
2235101,306,55
2235111,307,55
2235111,302,55
2235132,306,55
2235142,304,55
2235142,306,55
2235160,307,55
2235160,310,55
2235184,309,55
2235193,308,55
2235193,310,55
2235211,310,55
2235211,312,55
2235227,311,55
2235244,315,55
2235255,316,55
2235266,318,55
2235275,315,55
2235287,313,55
2235292,319,55
2235307,325,55
2235317,332,55
2235326,331,55
2235338,332,55
2235348,325,55
2235359,320,55
2235369,317,55
2235376,320,55
2235390,314,55
2235400,320,55
2235409,321,55
2235420,310,55
2235431,328,55
2235441,497,55
2235451,659,56
2235459,657,56
2235472,259,56
2235482,248,56
2235491,318,56
2235502,309,56
2235509,303,56
2235522,308,56
2235533,308,56
2235543,314,56
2235553,318,56
2235559,318,56
2235559,323,56
2235585,325,56
2235593,329,56
2235605,332,56
2235615,331,56
2235625,339,56
2235636,339,56
2235645,347,56
2235656,353,56
2235667,360,56
2235675,370,56
2235687,375,56
2235694,384,56
2235694,394,56
2235718,396,56
2235726,401,56
2235739,395,56
2235748,378,56
2235759,356,56
2235769,336,56
2235776,319,56
2235790,304,56
2235800,298,56
2235809,291,56
2235820,291,56
2235828,294,56
2235828,293,56
2235843,294,56
2235859,300,56
2235872,298,56
2235883,299,56
2235892,304,56
2235903,305,56
2235909,303,56
2235924,304,56
2235934,302,56
2235944,307,56
2235954,306,56
2235965,305,56
2235975,308,56
2235985,304,56
2235992,307,56
2236005,306,56
2236016,302,56
2236026,310,56
2236037,307,56
2236043,308,56
2236043,309,56
2236058,309,56
2236077,311,56
2236084,316,56
2236093,310,56
2236109,315,56
2236119,318,56
2236125,313,56
2236140,318,56
2236150,312,56
2236159,318,56
2236170,318,56
2236180,318,56
2236191,320,56
2236201,320,56
2236209,321,56
2236222,323,56
2236226,325,56
2236242,325,56
2236252,322,56
2236261,328,56
2236273,325,56
2236283,325,56
2236292,328,56
2236303,329,56
2236314,328,56
2236324,330,56
2236335,328,56
2236344,330,56
2236355,331,56
2236361,334,56
2236375,331,56
2236386,332,56
2236393,332,56
2236407,339,56
2236417,342,56
2236425,347,56
2236425,346,56
2236443,342,56
2236458,338,56
2236459,333,56
2236476,331,56
2236489,334,56
2236498,333,56
2236508,335,56
2236519,333,56
2236529,326,56
2236529,411,56
2236543,653,56
2236560,659,56
2236571,475,56
2236576,219,56
2236592,318,56
2236602,324,56
2236609,310,56
2236622,317,56
2236631,314,56
2236643,318,56
2236653,322,56
2236659,321,56
2236674,330,56
2236684,326,56
2236694,330,56
2236694,336,56
2236715,338,56
2236725,342,56
2236735,343,56
2236745,348,56
2236755,354,56
2236767,358,56
2236776,366,56
2236777,374,56
2236794,380,56
2236807,389,56
2236818,395,56
2236825,396,56
2236838,400,56
2236844,395,56
2236858,378,56
2236869,356,56
2236875,344,56
2236875,323,56
2236893,313,56
2236910,308,56
2236921,306,56
2236926,304,56
2236935,304,56
2236944,309,56
2236959,307,56
2236959,304,56
2236982,307,56
2236992,311,56
2236993,309,56
2237009,311,56
2237009,310,56
2237026,313,56
2237043,313,56
2237053,313,56
2237059,310,56
2237074,309,56
2237085,309,56
2237092,312,56
2237105,311,56
2237109,310,56
2237125,311,56
2237136,311,56
2237144,310,56
2237157,312,56
2237167,313,56
2237176,313,56
2237188,316,56
2237194,314,56
2237194,315,56
2237218,313,56
2237227,319,56
2237239,317,56
2237248,317,56
2237259,322,56
2237269,321,56
2237276,321,56
2237283,322,56
2237301,323,56
2237308,322,56
2237308,324,56
2237326,326,56
2237342,328,56
2237345,325,56
2237358,325,56
2237372,327,56
2237376,328,56
2237392,329,56
2237392,328,56
2237409,332,56
2237424,330,56
2237434,330,56
2237442,333,56
2237455,333,56
2237459,331,56
2237475,332,56
2237480,336,56
2237492,332,56
2237505,329,56
2237509,341,56
2237526,350,56
2237537,344,56
2237545,347,56
2237557,346,56
2237567,339,56
2237576,335,56
2237587,332,56
2237598,336,56
2237609,335,56
2237619,336,56
2237625,334,56
2237640,325,56
2237645,405,56
2237659,656,56
2237670,659,56
2237676,529,56
2237685,211,56
2237701,315,56
2237709,325,56
2237722,317,56
2237725,314,56
2237741,318,56
2237753,321,56
2237759,324,56
2237773,330,56
2237783,326,56
2237792,330,56
2237804,336,56
2237813,336,56
2237824,340,56
2237835,345,56
2237843,348,56
2237855,352,56
2237861,357,56
2237875,366,56
2237886,371,56
2237893,379,56
2237906,390,56
2237917,398,56
2237925,407,56
2237937,410,56
2237948,412,56
2237958,405,56
2237968,384,56
2237976,358,56
2237989,341,56
2237993,321,56
2238009,313,56
2238019,302,56
2238028,294,56
2238038,298,56
2238045,297,56
2238060,298,56
2238060,299,56
2238081,296,56
2238092,299,56
2238093,296,56
2238108,300,56
2238113,308,56
2238133,296,56
2238143,303,56
2238145,302,56
2238164,300,56
2238174,305,56
2238184,302,56
2238193,300,56
2238204,300,56
2238209,299,56
2238225,299,56
2238235,296,56
2238245,301,56
2238255,300,56
2238267,307,56
2238277,304,56
2238287,298,56
2238292,300,56
2238307,305,56
2238318,304,56
2238328,309,56
2238338,308,56
2238345,311,56
2238358,309,56
2238369,308,56
2238376,308,56
2238389,310,56
2238392,312,56
2238409,314,56
2238420,311,56
2238430,313,56
2238441,312,56
2238451,319,56
2238459,329,56
2238472,332,56
2238475,327,56
2238491,329,56
2238501,319,56
2238510,317,56
2238510,319,56
2238525,313,56
2238543,322,56
2238553,323,56
2238564,317,56
2238574,313,56
2238585,397,56
2238592,657,56
2238605,659,56
2238615,475,56
2238626,196,56
2238636,303,56
2238646,314,56
2238646,305,56
2238667,301,56
2238676,311,56
2238684,310,56
2238698,313,56
2238708,322,56
2238718,324,56
2238728,329,56
2238739,326,56
2238749,330,56
2238759,339,56
2238769,339,56
2238777,344,56
2238787,350,56
2238800,354,56
2238809,361,56
2238809,369,56
2238828,383,56
2238841,394,56
2238852,404,56
2238858,404,56
2238872,415,56
2238883,405,56
2238892,394,56
2238903,371,56
2238909,348,56
2238924,323,56
2238934,307,56
2238943,300,56
2238955,298,56
2238959,288,56
