Timestamp,ECGValue,BPM
2875174,337,58
2875182,335,58
2875194,343,58
2875205,347,58
2875215,348,58
2875225,354,58
2875233,361,58
2875245,365,58
2875248,374,58
2875265,377,58
2875277,385,58
2875286,390,58
2875298,397,58
2875298,393,58
2875315,380,58
2875328,365,58
2875335,342,58
2875348,325,58
2875359,312,58
2875365,302,58
2875379,299,58
2875390,300,58
2875399,297,58
2875410,300,58
2875414,300,58
2875431,303,58
2875441,308,58
2875448,308,58
2875461,307,58
2875465,306,58
2875482,305,58
2875492,305,58
2875498,306,58
2875514,308,58
2875515,311,58
2875532,306,58
2875544,312,58
2875548,309,58
2875564,305,58
2875574,311,58
2875582,309,58
2875587,310,58
2875606,314,58
2875615,308,58
2875626,313,58
2875634,313,58
2875639,314,58
2875650,319,58
2875666,315,58
2875678,319,58
2875687,318,58
2875698,314,58
2875698,321,58
2875716,318,58
2875729,320,58
2875732,326,58
2875748,321,58
2875748,321,58
2875766,322,58
2875780,323,58
2875790,330,58
2875800,319,58
2875800,328,58
2875821,328,58
2875831,326,58
2875841,333,58
2875848,327,58
2875848,328,58
2875873,328,58
2875882,327,58
2875893,332,58
2875899,332,58
2875914,329,58
2875924,332,58
2875932,333,58
2875944,345,58
2875948,346,58
2875965,343,58
2875976,344,58
2875984,333,58
2875987,330,58
2875998,334,58
2876016,326,58
2876027,333,58
2876032,332,58
2876048,333,58
2876058,325,58
2876065,389,58
2876078,655,58
2876088,659,58
2876098,541,58
2876109,207,58
2876115,314,58
2876130,322,58
2876136,316,58
2876148,314,58
2876160,317,58
2876171,323,58
2876180,324,58
2876191,330,58
2876198,330,58
2876212,331,58
2876215,332,58
2876232,335,58
2876242,344,58
2876248,343,58
2876263,347,58
2876274,357,58
2876282,360,58
2876293,365,58
2876304,375,58
2876314,380,58
2876324,388,58
2876335,394,58
2876345,401,58
2876350,404,58
2876364,397,58
2876376,389,58
2876382,360,58
2876397,339,58
2876407,325,58
2876415,306,58
2876427,300,58
2876437,295,58
2876448,292,58
2876458,292,58
2876465,289,58
2876479,294,58
2876489,296,58
2876499,296,58
2876510,300,58
2876520,299,58
2876530,302,58
2876540,303,58
2876550,304,58
2876561,305,58
2876571,302,58
2876582,301,58
2876592,305,58
2876602,304,58
2876612,302,58
2876622,306,58
2876632,301,58
2876643,305,58
2876654,304,58
2876664,308,58
2876673,308,58
2876682,303,58
2876689,307,58
2876698,309,58
2876714,306,58
2876726,310,58
2876732,309,58
2876746,311,58
2876757,310,58
2876765,315,58
2876765,314,58
2876782,315,58
2876796,308,58
2876807,317,58
2876814,314,58
2876828,314,58
2876838,314,58
2876849,314,58
2876859,320,58
2876866,318,58
2876880,318,58
2876888,321,58
2876899,319,58
2876911,324,58
2876916,321,58
2876931,321,58
2876941,321,58
2876949,324,58
2876962,336,58
2876965,341,58
2876982,335,58
2876993,338,58
2876998,329,58
2876998,326,58
2877023,326,58
2877031,324,58
2877044,325,58
2877050,324,58
2877050,326,58
2877075,320,58
2877082,337,58
2877095,531,58
2877105,659,58
2877114,654,58
2877126,244,58
2877131,275,58
2877137,327,58
2877157,312,58
2877165,306,58
2877165,312,58
2877182,313,58
2877198,317,58
2877208,322,58
2877214,322,58
2877214,326,58
2877239,330,58
2877249,326,58
2877249,334,58
2877269,338,58
2877279,339,58
2877291,347,58
2877300,351,58
2877300,357,58
2877322,362,58
2877331,371,58
2877342,379,58
2877348,388,58
2877362,394,58
2877365,397,58
2877382,393,58
2877393,387,58
2877399,369,58
2877399,348,58
2877425,330,58
2877433,313,58
2877444,307,58
2877449,298,58
2877465,298,58
2877476,298,58
2877482,301,58
2877490,299,58
2877499,302,58
2877515,302,58
2877527,308,58
2877532,304,58
2877547,303,58
2877558,311,58
2877566,308,58
2877578,308,58
2877589,308,58
2877598,308,58
2877600,310,58
2877615,311,58
2877630,309,58
2877632,313,58
2877650,310,58
2877650,315,58
2877666,312,58
2877666,313,58
2877691,313,58
2877700,311,58
2877712,315,58
2877718,314,58
2877732,311,58
2877743,317,58
2877748,315,58
2877763,316,58
2877773,318,58
2877781,320,58
2877794,318,58
2877804,321,58
2877814,320,58
2877825,323,58
2877832,318,58
2877846,320,58
2877856,329,58
2877865,322,58
2877876,328,58
2877882,326,58
2877896,328,58
2877907,328,58
2877915,324,58
2877928,330,58
2877937,330,58
2877949,329,58
2877958,331,58
2877964,328,58
2877979,335,58
2877989,333,58
2877998,331,58
2878010,338,58
2878016,335,58
2878016,333,58
2878041,335,58
2878049,335,58
2878061,335,58
2878072,339,58
2878081,337,58
2878092,341,58
2878100,339,58
2878112,334,58
2878123,336,58
2878131,343,58
2878143,356,58
2878148,355,58
2878164,349,58
2878174,347,58
2878181,341,58
2878194,339,58
2878199,338,58
2878215,339,58
2878215,335,58
2878233,337,58
2878246,338,58
2878256,330,58
2878266,367,58
2878276,584,57
2878281,659,57
2878297,636,57
2878299,236,57
2878315,300,57
2878315,334,57
2878333,318,57
2878348,316,57
2878349,324,57
2878364,320,57
2878364,329,57
2878382,328,57
2878398,331,57
2878410,333,57
2878415,338,57
2878431,337,57
2878442,343,57
2878449,347,57
2878461,347,57
2878465,352,57
2878482,358,57
2878492,366,57
2878498,372,57
2878513,379,57
2878523,388,57
2878531,396,57
2878545,400,57
2878555,407,57
2878564,406,57
2878575,400,57
2878583,377,57
2878595,356,57
2878605,344,57
2878616,319,57
2878626,314,57
2878631,305,57
2878646,301,57
2878657,303,57
2878665,302,57
2878677,303,57
2878687,304,57
2878698,306,57
2878708,306,57
2878715,306,57
2878729,310,57
2878733,309,57
2878748,312,57
2878760,307,57
2878766,313,57
2878780,309,57
2878791,311,57
2878801,309,57
2878811,310,57
2878822,311,57
2878832,307,57
2878842,314,57
2878849,311,57
2878862,311,57
2878873,312,57
2878883,310,57
2878891,312,57
2878900,311,57
2878914,311,57
2878924,314,57
2878933,308,57
2878944,312,57
2878948,315,57
2878965,317,57
2878976,316,57
2878982,314,57
2878996,315,57
2878998,317,57
2879015,317,57
2879027,316,57
2879037,317,57
2879048,320,57
2879058,319,57
2879065,318,57
2879078,320,57
2879089,318,57
2879099,319,57
2879099,338,57
2879116,339,57
2879130,331,57
2879135,333,57
2879149,321,57
2879149,321,57
2879171,320,57
2879181,319,57
2879191,321,57
2879198,320,57
2879212,321,57
2879217,319,57
2879233,312,57
2879233,450,57
2879250,658,58
2879263,658,58
2879274,320,58
2879282,229,58
2879294,318,58
2879302,309,58
2879314,300,58
2879325,307,58
2879335,307,58
2879344,314,58
2879355,312,58
2879365,317,58
2879376,322,58
2879386,322,58
2879396,325,58
2879405,331,58
2879405,336,58
2879423,341,58
2879437,342,58
2879448,346,58
2879454,354,58
2879469,362,58
2879478,369,58
2879489,381,58
2879500,387,58
2879504,397,58
2879520,400,58
2879531,401,58
2879538,395,58
2879542,370,58
2879561,346,58
2879571,328,58
2879582,303,58
2879592,298,58
2879602,294,58
2879612,287,58
2879621,288,58
2879621,286,58
2879637,292,58
2879654,287,58
2879664,292,58
2879671,292,58
2879684,293,58
2879694,295,58
2879704,304,58
2879715,296,58
2879721,303,58
2879721,304,58
2879740,304,58
2879755,306,58
2879767,301,58
2879772,304,58
2879787,306,58
2879798,302,58
2879804,305,58
2879818,302,58
2879828,304,58
2879837,305,58
2879849,307,58
2879854,310,58
2879854,306,58
2879871,309,58
2879887,310,58
2879900,308,58
2879910,313,58
2879920,312,58
2879931,311,58
2879939,317,58
2879939,314,58
2879962,313,58
2879971,320,58
2879982,316,58
2879987,316,58
2879993,322,58
2880004,320,58
2880023,321,58
2880030,320,58
2880038,325,58
2880054,325,58
2880065,321,58
2880071,324,58
2880085,329,58
2880095,325,58
2880104,328,58
2880116,328,58
2880121,330,58
2880136,326,58
2880147,328,58
2880154,332,58
2880167,329,58
2880178,331,58
2880187,347,58
2880193,348,58
2880205,343,58
2880205,342,58
2880222,340,58
2880238,335,58
2880250,328,58
2880260,335,58
2880270,330,58
2880281,328,58
2880287,335,58
2880293,328,58
2880303,334,58
2880321,492,58
2880331,659,57
2880337,657,57
2880352,301,57
2880363,258,57
2880371,334,57
2880382,313,57
2880394,314,57
2880404,318,57
2880413,316,57
2880421,319,57
2880434,322,57
2880441,327,57
2880455,328,57
2880465,331,57
2880471,335,57
2880486,338,57
2880496,338,57
2880504,345,57
2880517,347,57
2880523,353,57
2880533,362,57
2880548,363,57
2880554,373,57
2880554,380,57
2880578,388,57
2880588,402,57
2880599,399,57
2880606,404,57
2880606,397,57
2880630,379,57
2880638,359,57
2880650,338,57
2880660,323,57
2880670,310,57
2880680,304,57
2880687,303,57
2880701,302,57
2880712,300,57
2880721,305,57
2880721,305,57
2880738,305,57
2880753,307,57
2880754,303,57
2880771,308,57
2880784,310,57
2880793,307,57
2880804,313,57
2880815,311,57
2880821,311,57
2880835,312,57
2880846,310,57
2880856,310,57
2880866,308,57
2880871,311,57
2880887,312,57
2880896,307,57
2880904,311,57
2880917,311,57
2880927,316,57
2880937,312,57
2880940,311,57
2880955,314,57
2880969,312,57
2880979,316,57
2880988,317,57
2881000,313,57
2881004,321,57
2881020,316,57
2881030,314,57
2881037,316,57
2881051,320,57
2881055,313,57
2881071,320,57
2881071,322,57
2881087,322,57
2881102,324,57
2881105,321,57
2881121,327,57
2881133,322,57
2881137,325,57
2881154,325,57
2881164,323,57
2881171,328,57
2881184,325,57
2881194,327,57
2881204,330,57
2881204,327,57
2881222,331,57
2881230,331,57
2881246,329,57
2881255,331,57
2881267,333,57
2881273,329,57
2881287,333,57
2881298,337,57
2881307,351,57
2881318,348,57
2881328,344,57
2881338,344,57
2881349,336,57
2881356,338,57
2881356,334,57
2881380,332,57
2881388,335,57
2881394,332,57
2881410,338,57
2881420,329,57
2881431,346,57
2881440,526,57
2881451,659,57
2881462,657,57
2881472,268,57
2881482,268,57
2881489,335,57
2881503,315,57
2881514,312,57
2881523,318,57
2881534,322,57
2881538,323,57
2881555,327,57
2881555,326,57
2881573,332,57
2881585,334,57
2881596,335,57
2881606,340,57
2881606,339,57
2881622,346,57
2881637,350,57
2881646,358,57
2881655,365,57
2881666,369,57
2881671,380,57
2881687,387,57
2881698,394,57
2881704,405,57
2881719,409,57
2881721,413,57
2881739,402,57
2881750,386,57
2881755,358,57
2881770,336,57
2881780,321,57
2881787,309,57
2881802,305,57
2881812,296,57
2881821,299,57
2881832,297,57
2881841,301,57
2881853,299,57
2881856,298,57
2881872,305,57
2881882,301,57
2881887,306,57
2881903,307,57
2881903,307,57
2881919,310,57
2881934,313,57
2881943,309,57
2881955,311,57
2881965,305,57
2881976,312,57
2881986,312,57
2881995,312,57
2882006,315,57
2882017,311,57
2882027,311,57
2882037,315,57
2882047,314,57
2882058,312,57
2882068,312,57
2882078,315,57
2882089,314,57
2882096,314,57
2882096,319,57
2882119,315,57
2882127,316,57
2882139,321,57
2882151,317,57
2882160,319,57
2882171,321,57
2882177,320,57
2882192,321,57
2882195,323,57
2882210,322,57
2882222,324,57
2882233,326,57
2882243,322,57
2882245,323,57
2882260,326,57
2882260,329,57
2882284,326,57
2882294,326,57
2882304,329,57
2882315,324,57
2882325,331,57
2882334,328,57
2882344,326,57
2882344,332,57
2882361,345,57
2882376,346,57
2882386,340,57
2882395,336,57
2882406,330,57
2882410,326,57
2882426,323,57
2882438,327,57
2882448,324,57
2882458,325,57
2882461,326,57
2882478,314,57
2882489,335,57
2882496,523,56
2882510,659,56
2882519,656,56
2882526,242,56
2882541,262,56
2882551,318,56
2882560,309,56
2882571,306,56
2882582,306,56
2882592,314,56
2882602,314,56
2882611,311,56
2882623,320,56
2882629,322,56
2882643,320,56
2882643,331,56
2882661,328,56
2882674,334,56
2882684,339,56
2882694,343,56
2882705,347,56
2882715,350,56
2882726,361,56
2882736,365,56
2882744,378,56
2882756,389,56
2882767,395,56
2882776,404,56
2882779,399,56
2882795,388,56
2882808,371,56
2882819,346,56
2882828,322,56
2882839,303,56
2882849,294,56
2882859,289,56
2882863,284,56
2882878,284,56
2882889,289,56
2882898,288,56
2882910,288,56
2882910,291,56
2882927,292,56
2882937,294,56
2882947,294,56
2882960,297,56
2882972,299,56
2882982,300,56
2882993,302,56
2883003,302,56
2883011,300,56
2883024,305,56
2883034,303,56
2883044,305,56
2883054,306,56
2883065,303,56
2883075,304,56
2883085,305,56
2883095,305,56
2883106,305,56
2883113,305,56
2883113,308,56
2883129,307,56
2883144,304,56
2883157,312,56
2883162,310,56
2883177,312,56
2883187,312,56
2883195,313,56
2883208,315,56
2883219,314,56
2883227,312,56
2883240,318,56
2883249,315,56
2883260,317,56
2883270,320,56
2883276,321,56
2883291,321,56
2883301,320,56
2883310,322,56
2883322,324,56
2883329,321,56
2883343,325,56
2883352,326,56
2883363,326,56
2883363,327,56
2883380,323,56
2883394,332,56
2883403,330,56
2883410,328,56
2883410,333,56
2883435,328,56
2883444,332,56
2883455,333,56
2883460,331,56
2883476,332,56
2883483,332,56
2883496,334,56
2883496,336,56
2883517,331,56
2883526,333,56
2883537,344,56
2883544,352,56
2883558,349,56
2883568,347,56
2883578,349,56
2883581,338,56
2883596,336,56
2883609,337,56
2883620,335,56
2883627,335,56
2883639,339,56
2883650,336,56
2883660,326,56
2883671,362,56
2883677,570,56
2883692,659,56
2883701,640,56
2883710,232,56
2883722,296,56
2883732,331,56
2883742,316,56
2883753,315,56
2883761,318,56
2883774,325,56
2883779,324,56
2883794,325,56
2883805,328,56
2883814,327,56
2883825,334,56
2883835,334,56
2883844,341,56
2883844,342,56
2883866,344,56
2883876,354,56
2883887,357,56
2883896,359,56
2883907,367,56
2883917,373,56
2883927,384,56
2883938,392,56
2883947,398,56
2883947,404,56
2883969,408,56
2883977,398,56
2883990,382,56
2883999,359,56
2884010,338,56
2884020,324,56
2884027,309,56
2884041,305,56
2884044,301,56
2884060,303,56
2884072,299,56
2884079,302,56
2884092,302,56
2884103,307,56
2884111,305,56
2884123,307,56
2884128,307,56
2884128,309,56
2884144,310,56
2884161,309,56
2884174,310,56
2884177,310,56
2884193,310,56
2884205,312,56
2884211,309,56
2884226,311,56
2884236,312,56
2884243,309,56
2884256,311,56
2884267,311,56
2884277,313,56
2884287,312,56
2884296,310,56
2884308,317,56
2884318,312,56
2884329,314,56
2884339,317,56
2884348,315,56
2884359,317,56
2884363,316,56
2884379,314,56
2884389,318,56
2884396,319,56
2884410,321,56
2884421,321,56
2884427,318,56
2884441,325,56
2884446,326,56
2884461,323,56
2884472,325,56
2884483,324,56
2884493,325,56
2884496,327,56
2884511,326,56
2884524,329,56
2884534,330,56
2884544,330,56
2884555,329,56
2884560,331,56
2884575,331,56
2884586,331,56
2884594,331,56
2884605,332,56
2884611,333,56
2884626,332,56
2884637,332,56
2884644,343,56
2884644,353,56
2884661,347,56
2884678,347,56
2884687,341,56
2884697,334,56
2884708,332,56
2884719,331,56
2884727,329,56
2884739,335,56
2884744,328,56
2884759,332,56
2884770,324,56
2884776,417,56
2884791,658,55
2884801,659,55
2884810,471,55
2884821,211,55
2884831,312,55
2884842,320,55
2884853,315,55
2884860,315,55
2884872,321,55
2884883,321,55
2884894,324,55
2884897,328,55
2884910,328,55
2884924,335,55
2884934,335,55
2884943,336,55
2884943,341,55
2884962,341,55
2884975,350,55
2884984,353,55
2884994,359,55
2885006,369,55
2885011,370,55
2885027,381,55
2885037,398,55
2885048,401,55
2885058,411,55
2885068,415,55
2885078,412,55
2885088,400,55
2885099,371,55
2885110,344,55
2885113,325,55
2885129,305,55
2885140,300,55
2885144,294,55
2885160,290,55
2885163,291,55
2885179,287,55
2885191,288,55
2885197,293,55
2885211,292,55
2885222,294,55
2885226,294,55
2885243,297,55
2885253,301,55
2885261,296,55
2885261,301,55
2885284,302,55
2885294,303,55
2885305,303,55
2885310,301,55
2885325,300,55
2885335,304,55
2885344,301,55
2885356,303,55
2885367,300,55
2885375,304,55
2885387,307,55
2885394,301,55
2885408,308,55
2885417,306,55
2885427,305,55
2885437,308,55
2885446,305,55
2885458,311,55
2885469,310,55
2885478,309,55
2885489,312,55
2885499,311,55
2885510,314,55
2885520,317,55
2885527,313,55
2885541,314,55
2885551,316,55
2885561,315,55
2885572,320,55
2885579,316,55
2885592,318,55
2885602,333,55
2885610,336,55
2885623,336,55
2885633,329,55
2885643,322,55
2885653,326,55
2885661,317,55
2885666,318,55
2885685,318,55
2885694,319,55
2885705,322,55
2885715,317,55
2885726,315,55
2885736,447,55
2885744,658,55
2885756,658,55
2885760,350,55
2885777,222,55
2885788,317,55
2885795,310,55
2885808,308,55
2885810,307,55
2885827,314,55
2885839,314,55
2885844,314,55
2885859,320,55
2885870,324,55
2885878,325,55
2885889,328,55
2885901,332,55
2885911,336,55
2885912,340,55
2885927,341,55
2885942,348,55
2885944,355,55
2885960,360,55
2885960,372,55
2885983,377,55
2885992,389,55
2885998,398,55
2886010,402,55
2886024,403,55
2886027,399,55
2886044,382,55
2886055,357,55
2886060,334,55
2886075,318,55
2886083,304,55
2886095,297,55
2886106,297,55
2886110,292,55
2886127,293,55
2886137,293,55
2886143,296,55
2886157,299,55
2886167,299,55
2886177,299,55
2886187,304,55
2886196,305,55
2886199,305,55
2886212,306,55
2886228,306,55
2886238,307,55
2886243,307,55
2886260,305,55
2886260,308,55
2886278,308,55
2886287,310,55
2886300,308,55
2886311,308,55
2886322,312,55
2886327,310,55
2886336,314,55
2886352,312,55
2886361,309,55
2886373,314,55
2886377,315,55
2886394,314,55
2886403,322,55
2886414,317,55
2886424,322,55
2886432,320,55
2886444,317,55
2886444,325,55
2886460,318,55
2886476,322,55
2886486,326,55
2886496,325,55
2886507,328,55
2886516,324,55
2886527,325,55
2886527,330,55
2886544,325,55
2886558,330,55
2886569,329,55
2886577,328,55
2886583,333,55
2886599,329,55
2886609,332,55
2886609,331,55
2886630,330,55
2886638,337,55
2886650,333,55
2886655,334,55
2886671,337,55
2886681,332,55
2886689,333,55
2886701,341,55
2886712,350,55
2886722,348,55
2886733,347,55
2886739,343,55
2886753,338,55
2886763,337,55
2886773,337,55
2886783,329,55
2886794,333,55
2886804,336,55
2886815,331,55
2886822,324,55
2886830,393,55
2886846,634,55
2886855,659,55
2886866,562,55
2886872,214,55
2886887,315,55
2886888,326,55
2886906,315,55
2886917,316,55
2886922,315,55
2886938,321,55
2886948,321,55
2886955,327,55
2886969,327,55
2886973,328,55
2886989,331,55
2886999,332,55
2887005,337,55
2887020,344,55
2887030,344,55
2887038,350,55
2887038,357,55
2887055,357,55
2887071,368,55
2887082,373,55
2887088,385,55
2887103,394,55
2887112,392,55
2887121,402,55
2887133,400,55
2887140,394,55
2887153,375,55
2887165,355,55
2887174,334,55
2887184,318,55
2887194,308,55
2887205,302,55
2887215,301,55
2887221,303,55
2887221,301,55
2887246,302,55
2887255,304,55
2887267,307,55
2887271,305,55
2887288,308,55
2887298,303,55
2887305,305,55
2887318,308,55
2887328,306,55
2887339,309,55
2887349,311,55
2887356,312,55
2887370,313,55
2887380,304,55
2887390,310,55
2887399,308,55
2887406,309,55
2887406,310,55
2887422,311,55
2887439,312,55
2887452,315,55
2887462,312,55
2887472,314,55
2887480,317,55
2887490,315,55
2887504,317,55
2887505,314,55
2887524,319,55
2887531,320,55
2887540,317,55
2887540,321,55
2887565,320,55
2887572,322,55
2887585,325,55
2887588,320,55
2887605,331,55
2887616,327,55
2887622,324,55
2887637,327,55
2887643,323,55
2887655,328,55
2887655,327,55
2887678,327,55
2887688,334,55
2887698,326,55
2887705,333,55
2887719,331,55
2887729,329,55
2887740,334,55
2887740,334,55
2887755,332,55
2887770,332,55
2887781,331,55
2887788,336,55
2887799,335,55
2887804,331,55
2887821,348,55
2887832,353,55
2887838,345,55
2887853,345,55
2887857,342,55
2887872,338,55
2887883,335,55
2887891,332,55
2887903,333,55
2887915,333,55
2887921,336,55
2887935,328,55
2887945,329,55
2887955,478,55
2887965,658,55
2887974,658,55
2887981,360,55
2887996,237,55
2888005,332,55
2888005,314,55
2888022,312,55
2888038,315,55
2888048,317,55
2888054,322,55
2888068,322,55
2888079,325,55
2888088,330,55
2888099,331,55
2888105,334,55
2888105,335,55
2888130,340,55
2888138,348,55
2888151,349,55
2888161,355,55
2888171,359,55
2888181,363,55
2888189,375,55
2888201,383,55
2888212,391,55
2888221,403,55
2888233,407,55
2888241,410,55
2888241,407,55
2888263,391,55
2888272,371,55
2888284,348,55
2888288,323,55
2888305,314,55
2888315,299,55
2888322,295,55
2888335,295,55
2888343,293,55
2888356,294,55
2888357,292,55
2888373,293,55
2888387,296,55
2888388,296,55
2888405,303,55
2888417,300,55
2888422,300,55
2888438,305,55
2888449,303,55
2888455,302,55
2888455,306,55
2888472,302,55
2888489,306,55
2888499,301,55
2888505,303,55
2888520,304,55
2888531,302,55
2888538,306,55
2888551,306,55
2888557,301,55
2888557,305,55
2888581,306,55
2888592,304,55
2888602,310,55
2888613,307,55
2888622,311,55
2888630,308,55
2888639,307,55
2888639,309,55
2888664,309,55
2888671,316,55
2888681,314,55
2888689,312,55
2888705,318,55
2888716,315,55
2888722,317,55
2888729,319,55
2888738,318,55
2888756,318,55
2888767,319,55
2888774,320,55
2888788,321,55
2888788,318,55
2888807,334,55
2888807,344,55
2888829,335,55
2888839,336,55
2888839,328,55
2888855,320,55
2888869,324,55
2888880,320,55
2888890,321,55
2888891,320,55
2888911,322,55
2888921,322,55
2888922,314,55
2888938,430,55
2888952,658,56
2888956,659,56
2888971,399,56
2888983,213,56
2888989,316,56
2889004,312,56
2889013,306,56
2889023,307,56
2889034,312,56
2889044,310,56
2889055,319,56
2889065,317,56
2889072,324,56
2889085,324,56
2889095,327,56
2889106,333,56
2889106,335,56
2889122,340,56
2889132,342,56
2889139,347,56
2889156,357,56
2889167,361,56
2889176,364,56
2889188,380,56
2889199,385,56
2889206,393,56
2889206,400,56
2889229,401,56
2889239,398,56
2889249,388,56
2889256,363,56
2889256,340,56
2889273,320,56
2889289,302,56
2889301,298,56
2889307,293,56
2889321,292,56
2889331,288,56
2889339,292,56
2889353,296,56
2889363,294,56
2889372,295,56
2889383,297,56
2889391,299,56
2889401,303,56
2889414,304,56
2889422,302,56
2889435,308,56
2889445,306,56
2889455,308,56
2889466,307,56
2889474,308,56
2889484,307,56
2889490,307,56
2889506,306,56
2889506,308,56
2889527,307,56
2889537,310,56
2889548,308,56
2889558,313,56
2889568,312,56
2889579,314,56
2889588,315,56
2889599,311,56
2889606,318,56
2889620,313,56
2889630,315,56
2889640,314,56
2889651,315,56
2889661,316,56
2889670,321,56
2889681,318,56
2889689,318,56
2889701,318,56
2889712,320,56
2889722,323,56
2889724,318,56
2889740,322,56
2889754,327,56
2889756,323,56
2889772,323,56
2889784,325,56
2889794,322,56
2889804,326,56
2889815,326,56
2889822,326,56
2889836,328,56
2889846,330,56
2889856,329,56
2889866,328,56
2889872,334,56
2889887,332,56
2889897,326,56
2889905,334,56
2889917,331,56
2889928,328,56
2889938,336,56
2889948,345,56
2889955,351,56
2889970,349,56
2889974,342,56
2889989,340,56
2889999,334,56
2890005,331,56
2890005,332,56
2890031,332,56
2890038,334,56
2890051,333,56
2890055,328,56
2890072,342,56
2890082,506,55
2890088,659,55
2890103,657,55
2890106,293,55
2890121,265,55
2890133,334,55
2890142,313,55
2890153,312,55
2890165,316,55
2890174,317,55
2890185,319,55
2890189,320,55
2890205,324,55
2890215,326,55
2890224,329,55
2890235,333,55
2890247,333,55
2890256,340,55
2890256,338,55
2890273,341,55
2890288,353,55
2890288,354,55
2890304,360,55
2890318,373,55
2890323,374,55
2890338,385,55
2890349,393,55
2890355,396,55
2890370,404,55
2890372,393,55
2890390,389,55
2890401,365,55
2890406,341,55
2890421,327,55
2890430,311,55
2890439,303,55
2890452,302,55
2890462,297,55
2890473,300,55
2890483,298,55
2890489,302,55
2890503,305,55
2890513,301,55
2890523,306,55
2890534,310,55
2890544,307,55
2890554,309,55
2890565,308,55
2890572,310,55
2890585,310,55
2890588,309,55
2890606,309,55
2890616,308,55
2890622,311,55
2890636,313,55
2890647,307,55
2890655,311,55
2890667,308,55
2890672,313,55
2890688,313,55
2890699,311,55
2890706,311,55
2890718,315,55
2890729,311,55
2890739,319,55
2890739,317,55
2890755,312,55
2890770,319,55
2890780,319,55
2890788,316,55
2890801,320,55
2890807,319,55
2890822,321,55
2890832,318,55
2890841,322,55
2890853,323,55
2890863,322,55
2890872,324,55
2890883,321,55
2890890,324,55
2890904,327,55
2890915,324,55
2890922,330,55
2890922,330,55
2890945,322,55
2890956,327,55
2890965,328,55
2890972,330,55
2890980,333,55
2890997,328,55
2891006,332,55
2891016,332,55
2891021,330,55
2891037,333,55
2891048,332,55
2891058,333,55
2891068,332,55
2891079,335,55
2891089,346,55
2891100,344,55
2891105,341,55
2891119,347,55
2891130,336,55
2891140,336,55
2891140,332,55
2891156,332,55
2891172,333,55
2891172,334,55
2891190,333,55
2891202,325,55
2891213,356,55
2891223,568,55
2891229,659,55
2891240,645,55
2891240,232,55
2891255,285,55
2891272,329,55
2891284,311,55
2891294,311,55
2891305,316,55
2891315,316,55
2891322,320,55
2891335,325,55
2891346,328,55
2891355,330,55
2891366,328,55
2891372,331,55
2891387,338,55
2891390,341,55
2891405,344,55
2891417,347,55
2891428,350,55
2891438,357,55
2891449,366,55
2891456,372,55
2891470,382,55
2891479,389,55
2891488,396,55
2891499,401,55
2891510,402,55
2891520,403,55
2891531,383,55
2891538,359,55
2891551,342,55
2891561,320,55
2891572,313,55
2891582,303,55
2891589,297,55
2891589,301,55
2891613,293,55
2891622,301,55
2891633,302,55
2891640,301,55
2891640,304,55
2891664,301,55
2891672,303,55
2891685,307,55
2891695,309,55
2891706,309,55
2891715,304,55
2891721,309,55
2891735,308,55
2891747,306,55
2891756,313,55
2891759,306,55
2891773,305,55
2891787,309,55
2891798,308,55
2891805,307,55
2891818,310,55
2891822,309,55
2891838,312,55
2891849,315,55
2891860,310,55
2891870,314,55
2891872,312,55
2891888,316,55
2891901,318,55
2891906,318,55
2891921,318,55
2891931,318,55
2891940,317,55
2891952,318,55
2891962,321,55
2891972,322,55
2891983,322,55
2891989,318,55
2892003,323,55
2892013,324,55
2892022,324,55
2892034,324,55
2892044,323,55
2892055,329,55
2892065,328,55
2892072,325,55
2892085,326,55
2892096,332,55
2892105,346,55
2892105,341,55
2892122,341,55
2892136,342,55
2892147,330,55
2892155,328,55
2892168,329,55
2892172,328,55
2892188,332,55
2892190,331,55
2892205,334,55
2892219,317,55
2892225,381,55
2892239,650,55
2892249,659,55
2892254,555,55
2892271,200,55
2892281,304,55
2892288,321,55
2892301,313,55
2892305,312,55
2892321,313,55
2892332,316,55
2892342,317,55
2892353,325,55
2892362,324,55
2892372,327,55
2892383,329,55
2892394,333,55
2892404,337,55
2892414,340,55
2892421,344,55
2892435,350,55
2892445,358,55
2892455,361,55
2892465,372,55
2892471,375,55
2892485,392,55
2892497,394,55
2892506,403,55
2892517,408,55
2892527,406,55
2892538,396,55
2892548,371,55
2892554,344,55
2892568,328,55
2892578,309,55
2892589,299,55
2892589,289,55
2892609,290,55
2892619,292,55
2892630,290,55
2892640,293,55
2892640,294,55
2892660,294,55
2892671,295,55
2892681,299,55
2892690,296,55
2892690,300,55
2892712,300,55
2892721,306,55
2892733,303,55
2892739,305,55
2892739,307,55
2892763,304,55
2892773,304,55
2892784,306,55
2892788,304,55
2892805,306,55
2892814,306,55
2892822,304,55
2892836,308,55
2892846,303,55
2892856,309,55
2892866,310,55
2892877,308,55
2892887,314,55
2892896,309,55
2892907,310,55
2892918,310,55
2892922,311,55
2892938,314,55
2892948,314,55
2892957,315,55
2892969,317,55
2892974,313,55
2892989,319,55
2892999,318,55
2893010,317,55
2893020,319,55
2893031,321,55
2893038,323,55
2893052,322,55
2893062,322,55
2893072,324,55
2893082,326,55
2893088,326,55
2893103,326,55
2893113,324,55
2893122,329,55
2893134,328,55
2893138,326,55
2893154,331,55
2893164,344,55
2893172,346,55
2893180,342,55
2893195,337,55
2893205,336,55
2893216,331,55
2893223,325,55
2893230,333,55
2893240,325,55
2893255,327,55
2893255,333,55
2893271,320,55
2893287,338,55
2893298,515,55
2893306,659,55
2893318,657,55
2893329,272,55
2893339,265,55
2893350,328,55
2893356,308,55
2893370,311,55
2893381,311,55
2893390,315,55
2893390,318,55
2893406,318,55
2893406,321,55
2893422,325,55
2893438,325,55
2893452,331,55
2893456,332,55
2893472,340,55
2893483,345,55
2893489,342,55
2893489,350,55
2893507,354,55
2893521,363,55
2893534,371,55
2893544,376,55
2893555,389,55
2893555,393,55
2893571,398,55
2893586,402,55
2893589,394,55
2893606,384,55
2893616,363,55
2893621,341,55
2893637,325,55
2893647,309,55
2893655,303,55
2893667,299,55
2893678,297,55
2893688,302,55
2893690,302,55
2893707,300,55
2893719,306,55
2893729,301,55
2893739,306,55
2893749,307,55
2893760,305,55
2893770,311,55
2893780,307,55
2893788,312,55
2893802,311,55
2893807,308,55
2893807,310,55
2893832,312,55
2893838,309,55
2893843,313,55
2893857,310,55
2893873,309,55
2893883,311,55
2893889,314,55
2893904,314,55
2893915,313,55
2893922,314,55
2893935,318,55
2893939,313,55
2893955,320,55
2893966,316,55
2893971,313,55
2893986,319,55
2893996,318,55
2894005,323,55
2894017,322,55
2894022,321,55
2894037,325,55
2894048,324,55
2894057,322,55
2894057,325,55
2894073,325,55
2894089,328,55
2894089,326,55
2894107,325,55
2894120,331,55
2894130,330,55
2894139,327,55
2894151,332,55
2894155,333,55
2894171,333,55
2894181,334,55
2894191,334,55
2894202,333,55
2894212,331,55
2894221,337,55
2894233,336,55
2894239,335,55
2894254,344,55
2894255,353,55
2894272,355,55
2894284,350,55
2894294,345,55
2894304,339,55
2894315,336,55
2894322,335,55
2894336,334,55
2894346,331,55
2894356,333,55
2894366,336,55
2894377,325,55
2894387,380,55
2894397,635,55
2894407,659,55
2894417,600,55
2894428,208,55
2894438,304,55
2894449,325,55
2894455,309,55
2894470,318,55
2894473,317,55
2894489,320,55
2894499,323,55
2894508,328,55
2894508,328,55
2894531,332,55
2894538,332,55
2894552,335,55
2894562,338,55
2894571,345,55
2894582,348,55
2894589,351,55
2894589,360,55
2894613,361,55
2894622,371,55
2894630,381,55
2894638,387,55
2894653,401,55
2894665,404,55
2894672,410,55
2894685,412,55
2894695,401,55
2894705,385,55
2894716,358,55
2894723,334,55
2894723,317,55
2894739,302,55
2894756,298,55
2894767,294,55
2894777,293,55
2894787,294,55
2894798,292,55
2894808,295,55
2894819,300,55
2894829,299,55
2894838,298,55
2894844,301,55
2894857,303,55
2894870,307,55
2894880,305,55
2894890,305,55
2894890,305,55
2894911,308,55
2894921,306,55
2894931,303,55
2894939,305,55
2894951,307,55
2894962,304,55
2894973,307,55
2894974,305,55
2894989,303,55
2895003,310,55
2895008,308,55
2895024,307,55
2895031,310,55
2895039,312,55
2895054,311,55
2895054,310,55
2895073,312,55
2895086,313,55
2895096,313,55
2895105,313,55
2895116,317,55
2895127,314,55
2895137,318,55
2895147,316,55
2895155,318,55
2895167,321,55
2895178,315,55
2895188,318,55
2895199,331,55
2895209,338,55
2895219,334,55
2895224,330,55
2895239,326,55
2895249,324,55
2895256,319,55
2895256,321,55
2895281,320,55
2895289,320,55
2895302,321,55
2895309,316,55
2895322,312,55
2895332,389,55
2895338,654,56
2895338,659,56
2895363,496,56
2895371,199,56
2895384,304,56
2895390,312,56
2895404,306,56
2895415,303,56
2895422,310,56
2895422,316,56
2895445,310,56
2895455,320,56
2895466,321,56
2895474,324,56
2895479,326,56
2895497,331,56
2895505,335,56
2895517,336,56
2895527,339,56
2895538,348,56
2895548,349,56
2895557,356,56
2895557,367,56
2895579,370,56
2895589,383,56
2895589,392,56
2895609,395,56
2895609,405,56
2895630,398,56
2895638,386,56
2895651,365,56
2895660,340,56
2895671,322,56
2895681,302,56
2895690,298,56
2895702,296,56
2895709,289,56
2895722,291,56
2895732,295,56
2895739,292,56
2895754,294,56
2895764,297,56
2895773,297,56
2895784,298,56
2895789,299,56
2895805,304,56
2895815,305,56
2895822,303,56
2895836,306,56
2895842,305,56
2895856,305,56
2895866,306,56
2895876,303,56
2895886,309,56
2895890,305,56
2895906,307,56
2895917,308,56
2895922,306,56
2895938,310,56
2895949,310,56
2895959,308,56
2895969,313,56
2895979,309,56
2895988,313,56
2896000,313,56
2896010,311,56
2896010,317,56
2896022,317,56
2896038,318,56
2896051,316,56
2896058,315,56
2896072,324,56
2896083,320,56
2896088,316,56
2896103,322,56
2896112,321,56
2896122,322,56
2896134,325,56
2896140,321,56
2896140,326,56
2896164,323,56
2896172,327,56
2896185,329,56
2896190,326,56
2896205,330,56
2896210,329,56
2896222,328,56
2896235,331,56
2896247,331,56
2896256,333,56
2896267,331,56
2896277,333,56
2896288,343,56
2896298,347,56
2896307,342,56
2896310,348,56
2896329,337,56
2896338,333,56
2896349,335,56
2896355,327,56
2896369,332,56
2896380,334,56
2896390,334,56
2896390,331,56
2896410,322,56
2896422,424,56
2896431,657,56
2896439,659,56
2896452,462,56
2896463,221,56
2896472,323,56
2896483,320,56
2896489,307,56
2896489,315,56
2896510,314,56
2896520,314,56
2896530,321,56
2896536,320,56
2896555,327,56
2896565,326,56
2896576,326,56
2896586,335,56
2896593,337,56
2896607,340,56
2896616,344,56
2896626,348,56
2896637,353,56
2896645,357,56
2896657,366,56
2896667,377,56
2896678,382,56
2896688,391,56
2896696,396,56
2896709,400,56
2896720,398,56
2896728,388,56
2896740,372,56
2896750,352,56
2896761,331,56
2896770,318,56
2896780,310,56
2896791,307,56
2896801,303,56
2896811,301,56
2896811,303,56
2896828,303,56
2896842,302,56
2896845,306,56
2896860,304,56
2896860,309,56
2896877,311,56
2896893,307,56
2896894,309,56
2896914,310,56
2896924,308,56
2896934,311,56
2896945,307,56
2896946,309,56
2896961,308,56
2896977,310,56
2896986,310,56
2896994,308,56
2897006,309,56
2897011,312,56
2897027,309,56
2897034,316,56
2897043,313,56
2897059,310,56
2897061,317,56
2897079,312,56
2897087,316,56
2897094,317,56
2897110,318,56
2897112,322,56
2897128,317,56
2897140,320,56
2897151,320,56
2897160,318,56
2897171,324,56
2897178,323,56
2897192,321,56
2897196,323,56
2897211,325,56
2897222,323,56
2897228,329,56
2897237,324,56
2897246,328,56
2897262,330,56
2897274,326,56
2897279,329,56
2897295,327,56
2897295,331,56
2897311,328,56
2897325,331,56
2897336,333,56
2897345,335,56
2897356,336,56
2897360,333,56
2897377,331,56
2897387,336,56
2897394,347,56
2897408,351,56
2897412,349,56
2897428,342,56
2897430,336,56
2897444,334,56
2897459,335,56
2897470,337,56
2897478,334,56
2897490,333,56
2897494,334,56
2897510,327,56
2897520,348,56
2897527,553,56
2897541,659,56
2897551,657,56
2897561,257,56
2897565,274,56
2897582,334,56
2897592,315,56
2897603,316,56
2897612,315,56
2897612,319,56
2897634,322,56
2897644,328,56
2897645,327,56
2897661,331,56
2897674,331,56
2897685,338,56
2897695,339,56
2897706,344,56
2897712,346,56
2897726,351,56
2897736,356,56
2897745,359,56
2897756,370,56
2897767,378,56
2897777,384,56
2897788,398,56
2897794,411,56
2897808,406,56
2897819,414,56
2897828,410,56
2897839,394,56
2897849,369,56
2897861,339,56
2897861,322,56
2897878,313,56
2897890,301,56
2897901,298,56
2897910,293,56
2897921,299,56
2897927,298,56
2897942,295,56
2897952,301,56
2897962,299,56
2897962,302,56
2897978,302,56
2897993,301,56
2897994,305,56
2898012,307,56
2898024,305,56
2898029,309,56
2898045,306,56
2898045,308,56
2898061,307,56
2898061,302,56
2898086,307,56
2898094,306,56
2898107,306,56
2898113,309,56
2898113,307,56
2898137,309,56
2898144,305,56
2898158,310,56
2898162,309,56
2898177,310,56
2898188,312,56
2898194,312,56
2898208,311,56
2898219,312,56
2898227,311,56
2898240,312,56
2898250,315,56
2898260,310,56
2898262,316,56
2898277,316,56
2898291,316,56
2898302,320,56
2898311,315,56
2898321,318,56
2898327,332,56
2898343,337,56
2898353,334,56
2898360,328,56
2898373,325,56
2898380,322,56
2898394,317,56
2898394,319,56
2898413,321,56
2898424,320,56
2898434,323,56
2898444,314,56
2898457,316,56
2898466,463,56
2898476,658,57
2898481,658,57
2898495,323,57
2898506,228,57
2898517,318,57
2898527,307,57
2898538,305,57
2898544,308,57
2898558,310,57
2898561,314,57
2898579,316,57
2898589,318,57
2898594,323,57
2898610,323,57
2898620,335,57
2898628,328,57
2898640,335,57
2898644,341,57
2898661,340,57
2898671,350,57
2898681,353,57
2898692,363,57
2898702,369,57
2898711,378,57
2898722,390,57
2898732,399,57
2898743,402,57
2898753,404,57
2898760,400,57
2898774,379,57
2898779,357,57
2898790,332,57
2898805,316,57
2898813,302,57
2898825,292,57
2898835,293,57
2898845,288,57
2898855,291,57
2898863,289,57
2898877,288,57
2898887,294,57
2898894,295,57
2898903,297,57
2898918,297,57
2898927,300,57
2898938,302,57
2898949,303,57
2898959,302,57
2898961,306,57
2898978,304,57
2898990,305,57
2898994,307,57
2899010,300,57
2899013,304,57
2899027,304,57
2899037,306,57
2899052,304,57
2899061,306,57
2899072,306,57
2899078,310,57
2899085,310,57
2899095,311,57
2899111,312,57
2899114,310,57
2899128,313,57
2899144,316,57
2899154,314,57
2899162,314,57
2899174,315,57
2899185,318,57
2899195,315,57
2899196,315,57
2899213,321,57
2899227,316,57
2899228,321,57
2899244,319,57
2899256,318,57
2899267,323,57
2899277,320,57
2899288,322,57
2899294,324,57
2899308,323,57
2899320,330,57
2899328,328,57
2899339,327,57
2899349,330,57
2899360,326,57
2899370,328,57
2899377,328,57
2899391,328,57
2899401,331,57
2899410,325,57
2899421,336,57
2899427,353,57
2899442,344,57
2899446,342,57
2899462,340,57
2899462,333,57
2899478,334,57
2899493,328,57
2899504,333,57
2899514,330,57
2899524,329,57
2899534,335,57
2899544,325,57
2899555,381,57
2899560,620,56
2899575,659,56
2899586,585,56
2899594,217,56
2899594,306,56
2899614,329,56
2899614,314,56
2899629,313,56
2899646,310,56
2899658,316,56
2899662,320,56
2899678,321,56
2899689,324,56
2899694,326,56
2899694,328,56
2899719,335,56
2899727,335,56
2899736,335,56
2899744,342,56
2899760,346,56
2899770,352,56
2899777,358,56
2899791,363,56
2899794,373,56
2899811,379,56
2899822,388,56
2899829,397,56
2899843,399,56
2899853,401,56
2899860,395,56
2899873,377,56
2899883,355,56
2899894,335,56
2899903,324,56
2899914,310,56
2899925,306,56
2899930,305,56
2899944,300,56
2899944,303,56
2899959,306,56
2899976,304,56
2899986,309,56
2899996,305,56
2900006,306,56
2900014,311,56
2900028,308,56
2900038,312,56
2900048,306,56
2900056,309,56
2900069,314,56
2900078,309,56
2900089,310,56
2900099,314,56
2900110,306,56
2900120,310,56
2900127,312,56
2900140,311,56
2900144,315,56
2900161,311,56
2900171,317,56
2900180,312,56
2900192,314,56
2900196,315,56
2900211,316,56
2900214,317,56
2900227,318,56
2900243,315,56
2900253,320,56
2900261,316,56
2900274,315,56
2900284,323,56
2900294,316,56
2900295,322,56
2900315,323,56
2900326,318,56
2900330,324,56
2900343,325,56
2900343,327,56
2900362,326,56
2900362,324,56
2900387,329,56
2900394,328,56
2900394,325,56
2900418,329,56
2900428,326,56
2900438,329,56
2900444,331,56
2900458,327,56
2900469,335,56
2900477,331,56
2900490,331,56
2900500,333,56
2900510,333,56
2900520,332,56
2900529,333,56
2900529,335,56
2900551,340,56
2900561,332,56
2900572,334,56
2900582,346,56
2900593,351,56
2900603,348,56
2900613,346,56
2900623,339,56
2900633,338,56
2900644,335,56
2900654,336,56
2900661,330,56
2900675,333,56
2900685,339,56
2900694,328,56
2900706,326,56
2900715,440,56
2900725,658,56
2900734,659,56
2900743,435,56
2900743,221,56
2900767,327,56
2900777,318,56
2900788,311,56
2900794,316,56
2900808,314,56
2900819,320,56
2900828,319,56
2900839,325,56
2900849,329,56
2900860,329,56
2900870,337,56
2900878,335,56
2900891,337,56
2900901,342,56
2900911,345,56
2900921,350,56
2900927,357,56
2900942,359,56
2900952,371,56
2900960,378,56
2900972,385,56
2900983,398,56
2900993,403,56
2901004,407,56
2901010,410,56
2901015,397,56
2901030,379,56
2901044,354,56
2901055,338,56
2901065,318,56
2901075,307,56
2901086,306,56
2901094,298,56
2901107,300,56
2901115,298,56
2901127,299,56
2901138,305,56
2901144,302,56
2901158,301,56
2901161,306,56
2901178,307,56
2901189,308,56
2901194,308,56
2901194,306,56
2901220,310,56
2901228,311,56
2901236,307,56
2901250,313,56
2901261,309,56
2901270,314,56
2901277,309,56
2901291,306,56
2901293,315,56
2901311,309,56
2901322,313,56
2901332,315,56
2901343,317,56
2901353,312,56
2901361,315,56
2901373,314,56
2901377,318,56
2901393,317,56
2901404,318,56
2901411,317,56
2901425,316,56
2901434,322,56
2901444,320,56
2901456,322,56
2901461,323,56
2901476,319,56
2901486,321,56
2901494,324,56
2901507,322,56
2901516,326,56
2901527,323,56
2901538,324,56
2901544,325,56
2901559,324,56
2901561,331,56
2901578,330,56
2901589,326,56
2901594,330,56
2901609,343,56
2901616,347,56
2901627,342,56
2901641,342,56
2901651,337,56
2901661,330,56
2901672,329,56
2901678,328,56
2901692,328,56
2901702,332,56
2901711,330,56
2901722,322,56
2901734,331,56
2901743,504,57
2901745,659,57
2901760,658,57
2901760,288,57
2901778,248,57
2901794,319,57
2901805,312,57
2901810,310,57
2901816,310,57
2901836,317,57
2901844,320,57
2901857,321,57
2901862,322,57
2901862,321,57
2901887,332,57
2901894,329,57
2901908,332,57
2901916,341,57
2901927,339,57
2901938,347,57
2901946,352,57
2901958,355,57
2901970,363,57
2901977,368,57
2901990,378,57
2901995,390,57
2902010,394,57
2902020,403,57
2902030,408,57
2902041,398,57
2902045,384,57
2902060,358,57
2902072,334,57
2902079,318,57
2902093,300,57
2902103,295,57
2902110,288,57
2902124,289,57
2902130,288,57
2902143,287,57
2902143,291,57
2902162,292,57
2902174,291,57
2902185,302,57
2902194,299,57
2902205,296,57
2902211,298,57
2902217,297,57
2902236,300,57
2902244,301,57
2902257,299,57
2902268,305,57
2902277,300,57
2902284,304,57
2902295,302,57
2902308,304,57
2902317,301,57
2902329,302,57
2902339,304,57
2902344,305,57
2902344,303,57
2902370,308,57
2902378,310,57
2902390,305,57
2902394,311,57
2902411,312,57
2902421,310,57
2902427,312,57
2902442,311,57
2902447,312,57
2902461,313,57
2902472,315,57
2902477,318,57
2902493,314,57
2902503,320,57
2902512,318,57
2902517,317,57
2902534,321,57
2902545,316,57
2902555,322,57
2902561,322,57
2902575,321,57
2902586,323,57
2902594,322,57
2902606,323,57
2902612,325,57
2902617,323,57
2902637,326,57
2902644,328,57
2902644,338,57
2902668,349,57
2902677,342,57
2902688,342,57
2902696,338,57
2902696,326,57
2902718,326,57
2902728,328,57
2902740,328,57
2902744,332,57
2902760,329,57
2902760,325,57
2902778,333,57
2902791,477,57
2902794,659,56
2902810,658,56
2902822,325,56
2902829,243,56
2902843,327,56
2902853,314,56
2902860,309,56
2902873,310,56
2902884,316,56
2902894,316,56
2902904,322,56
2902911,322,56
2902925,325,56
2902929,333,56
2902943,328,56
2902943,332,56
2902961,340,56
2902961,338,56
2902986,347,56
2902995,348,56
2903006,354,56
2903017,365,56
2903027,368,56
2903035,376,56
2903044,388,56
2903058,390,56
2903065,399,56
2903078,402,56
2903089,400,56
2903099,388,56
2903109,366,56
2903118,346,56
2903128,327,56
2903141,312,56
2903144,306,56
2903160,298,56
2903171,299,56
2903182,302,56
2903192,301,56
2903202,302,56
2903211,300,56
2903222,307,56
2903233,305,56
2903243,303,56
2903253,310,56
2903260,308,56
2903274,309,56
2903284,313,56
2903294,308,56
2903305,310,56
2903310,311,56
2903325,308,56
2903336,309,56
2903344,310,56
2903356,311,56
2903360,310,56
2903377,307,56
2903388,312,56
2903393,312,56
2903408,307,56
2903418,313,56
2903428,313,56
2903439,314,56
2903444,317,56
2903458,312,56
2903469,318,56
2903477,317,56
2903490,316,56
2903500,322,56
2903510,321,56
2903520,322,56
2903529,321,56
2903539,320,56
2903552,326,56
2903561,324,56
2903561,322,56
2903580,324,56
2903593,322,56
2903603,325,56
2903612,326,56
2903618,325,56
2903634,332,56
2903644,329,56
2903654,328,56
2903661,330,56
2903675,327,56
2903685,330,56
2903695,330,56
2903696,329,56
2903713,334,56
2903719,326,56
2903728,331,56
2903743,340,56
2903757,347,56
2903760,351,56
2903777,339,56
2903788,337,56
2903794,335,56
2903809,330,56
2903811,331,56
2903828,331,56
2903839,333,56
2903844,331,56
2903859,332,56
2903870,324,56
2903877,396,56
2903891,642,56
2903901,659,56
2903911,524,56
2903921,211,56
2903927,315,56
2903942,322,56
2903952,312,56
2903961,312,56
2903972,312,56
2903984,318,56
2903993,319,56
2904004,324,56
2904011,325,56
2904025,323,56
2904033,330,56
2904045,330,56
2904055,335,56
2904060,341,56
2904060,341,56
2904079,348,56
2904095,352,56
2904106,355,56
2904117,366,56
2904128,371,56
2904137,379,56
2904144,389,56
2904158,391,56
2904161,403,56
2904177,401,56
2904189,394,56
2904193,378,56
2904209,354,56
2904219,338,56
2904227,320,56
2904231,308,56
2904244,307,56
2904260,300,56
2904270,301,56
2904277,301,56
2904291,300,56
2904294,303,56
2904311,303,56
2904322,304,56
2904327,309,56
2904342,303,56
2904353,309,56
2904360,309,56
2904360,310,56
2904377,309,56
2904394,307,56
2904404,308,56
2904412,309,56
2904425,306,56
2904435,312,56
2904445,309,56
2904446,308,56
2904466,313,56
2904476,309,56
2904485,309,56
2904494,314,56
2904507,311,56
2904517,315,56
2904527,315,56
2904538,314,56
2904544,317,56
2904559,316,56
2904569,317,56
2904578,320,56
2904589,316,56
2904594,321,56
2904610,316,56
2904620,320,56
2904628,321,56
2904641,320,56
2904651,324,56
2904661,323,56
2904672,325,56
2904678,323,56
2904692,326,56
2904702,327,56
2904711,326,56
2904722,325,56
2904733,331,56
2904743,324,56
2904754,327,56
2904760,331,56
2904774,329,56
2904784,331,56
2904794,332,56
2904805,327,56
2904810,333,56
2904825,347,56
2904835,350,56
2904844,346,56
2904857,343,56
2904862,336,56
2904877,332,56
2904888,332,56
2904895,333,56
2904907,330,56
2904918,335,56
2904928,332,56
2904935,324,56
2904944,336,56
2904958,502,56
2904970,659,56
2904978,658,56
2904986,294,56
2905000,251,56
2905010,324,56
2905020,317,56
2905028,314,56
2905041,314,56
2905044,320,56
2905060,321,56
2905060,320,56
2905082,327,56
2905092,328,56
2905103,331,56
2905110,336,56
2905123,336,56
2905133,339,56
2905144,343,56
2905144,348,56
2905162,357,56
2905175,357,56
2905186,367,56
2905193,377,56
2905206,383,56
2905216,396,56
2905225,400,56
2905235,409,56
2905244,410,56
2905244,408,56
2905261,396,56
2905277,369,56
2905287,347,56
2905294,327,56
2905309,306,56
2905311,304,56
2905327,298,56
2905337,294,56
2905345,294,56
2905359,292,56
2905370,298,56
2905377,299,56
2905384,297,56
2905394,302,56
2905411,302,56
2905421,305,56
2905427,306,56
2905442,300,56
2905446,306,56
2905461,308,56
2905472,304,56
2905481,307,56
2905493,304,56
2905504,307,56
2905511,306,56
2905524,302,56
2905534,306,56
2905544,302,56
2905555,308,56
2905560,306,56
2905575,306,56
2905586,310,56
2905594,308,56
2905607,310,56
2905612,311,56
2905620,310,56
2905636,311,56
2905644,314,56
