Timestamp,ECGValue,BPM
3079942,302,62
3079944,306,62
3079959,302,62
3079972,308,62
3079976,306,62
3079992,303,62
3079992,308,62
3080008,307,62
3080023,308,62
3080034,309,62
3080042,306,62
3080042,308,62
3080059,307,62
3080075,307,62
3080085,312,62
3080092,309,62
3080092,311,62
3080111,311,62
3080120,309,62
3080137,314,62
3080142,310,62
3080157,315,62
3080159,315,62
3080177,314,62
3080188,318,62
3080192,315,62
3080209,317,62
3080219,321,62
3080226,318,62
3080231,320,62
3080250,321,62
3080259,320,62
3080270,326,62
3080281,321,62
3080290,324,62
3080292,325,62
3080310,322,62
3080321,330,62
3080327,327,62
3080342,324,62
3080352,331,62
3080359,326,62
3080359,332,62
3080383,329,62
3080392,328,62
3080404,334,62
3080414,331,62
3080424,332,62
3080432,333,62
3080443,331,62
3080455,335,62
3080465,334,62
3080476,333,62
3080486,332,62
3080496,332,62
3080507,342,62
3080516,349,62
3080526,347,62
3080538,349,62
3080542,341,62
3080557,339,62
3080568,338,62
3080576,333,62
3080589,336,62
3080599,338,62
3080609,335,62
3080609,330,62
3080626,360,62
3080639,565,60
3080650,659,60
3080658,633,60
3080671,230,60
3080678,297,60
3080691,334,60
3080702,318,60
3080709,315,60
3080721,318,60
3080726,324,60
3080743,322,60
3080752,330,60
3080760,330,60
3080773,331,60
3080784,340,60
3080792,332,60
3080804,342,60
3080810,344,60
3080825,349,60
3080835,354,60
3080842,354,60
3080856,364,60
3080866,371,60
3080875,375,60
3080882,387,60
3080893,392,60
3080907,397,60
3080918,404,60
3080926,400,60
3080934,395,60
3080943,378,60
3080958,351,60
3080959,335,60
3080975,316,60
3080985,307,60
3080993,303,60
3081009,300,60
3081009,300,60
3081027,299,60
3081041,301,60
3081046,304,60
3081058,300,60
3081071,309,60
3081082,303,60
3081092,306,60
3081102,309,60
3081109,306,60
3081122,307,60
3081133,307,60
3081144,306,60
3081153,309,60
3081159,308,60
3081175,307,60
3081185,311,60
3081193,307,60
3081193,310,60
3081208,309,60
3081225,305,60
3081235,309,60
3081244,306,60
3081256,314,60
3081266,310,60
3081275,309,60
3081288,314,60
3081296,313,60
3081307,315,60
3081317,315,60
3081327,313,60
3081331,318,60
3081346,318,60
3081359,318,60
3081369,322,60
3081376,320,60
3081390,322,60
3081393,324,60
3081408,321,60
3081408,328,60
3081431,324,60
3081441,321,60
3081452,328,60
3081459,323,60
3081472,328,60
3081483,328,60
3081492,327,60
3081503,330,60
3081509,330,60
3081524,328,60
3081534,328,60
3081543,324,60
3081543,329,60
3081558,334,60
3081574,341,60
3081585,344,60
3081592,341,60
3081605,342,60
3081616,337,60
3081626,329,60
3081637,335,60
3081647,329,60
3081657,330,60
3081659,335,60
3081675,319,60
3081688,346,60
3081692,539,60
3081708,659,60
3081719,654,60
3081726,225,60
3081739,274,60
3081743,325,60
3081759,317,60
3081770,317,60
3081776,316,60
3081790,320,60
3081801,325,60
3081810,323,60
3081810,331,60
3081831,333,60
3081842,332,60
3081852,338,60
3081859,337,60
3081873,346,60
3081883,351,60
3081893,352,60
3081893,362,60
3081909,362,60
3081924,374,60
3081934,383,60
3081943,388,60
3081955,402,60
3081966,403,60
3081976,409,60
3081986,412,60
3081992,399,60
3081992,375,60
3082009,351,60
3082026,326,60
3082037,311,60
3082042,300,60
3082058,292,60
3082068,291,60
3082075,287,60
3082089,288,60
3082093,290,60
3082109,288,60
3082119,297,60
3082126,294,60
3082140,298,60
3082150,298,60
3082159,295,60
3082171,302,60
3082181,302,60
3082191,300,60
3082192,304,60
3082210,300,60
3082210,305,60
3082232,303,60
3082243,299,60
3082243,303,60
3082261,302,60
3082274,300,60
3082284,303,60
3082294,302,60
3082304,304,60
3082315,305,60
3082325,304,60
3082335,308,60
3082343,302,60
3082343,307,60
3082366,309,60
3082375,307,60
3082386,310,60
3082392,310,60
3082407,310,60
3082418,313,60
3082426,312,60
3082438,315,60
3082448,312,60
3082459,314,60
3082459,320,60
3082478,316,60
3082489,315,60
3082492,321,60
3082508,318,60
3082520,322,60
3082531,318,60
3082541,324,60
3082551,325,60
3082559,320,60
3082572,322,60
3082580,324,60
3082580,323,60
3082602,326,60
3082609,323,60
3082623,327,60
3082626,329,60
3082642,325,60
3082642,327,60
3082659,330,60
3082674,338,60
3082685,342,60
3082693,339,60
3082704,340,60
3082715,331,60
3082725,328,60
3082736,333,60
3082742,328,60
3082756,330,60
3082766,335,60
3082775,331,60
3082787,324,60
3082797,407,60
3082808,654,58
3082809,659,58
3082826,473,58
3082835,221,58
3082845,323,58
3082859,321,58
3082869,315,58
3082875,316,58
3082884,319,58
3082900,321,58
3082908,322,58
3082921,325,58
3082928,328,58
3082941,330,58
3082951,335,58
3082959,334,58
3082959,341,58
3082977,343,58
3082992,346,58
3082992,355,58
3083010,358,58
3083023,361,58
3083033,373,58
3083043,377,58
3083054,391,58
3083065,394,58
3083075,399,58
3083083,408,58
3083093,401,58
3083105,393,58
3083116,369,58
3083126,342,58
3083137,326,58
3083144,310,58
3083157,302,58
3083167,300,58
3083177,295,58
3083179,298,58
3083198,295,58
3083209,298,58
3083219,302,58
3083227,300,58
3083240,303,58
3083250,305,58
3083259,303,58
3083259,308,58
3083276,303,58
3083290,308,58
3083302,307,58
3083310,305,58
3083322,310,58
3083331,306,58
3083342,306,58
3083353,309,58
3083360,305,58
3083360,306,58
3083378,313,58
3083393,306,58
3083394,312,58
3083410,310,58
3083425,308,58
3083435,314,58
3083443,309,58
3083455,315,58
3083458,317,58
3083475,314,58
3083486,319,58
3083493,315,58
3083493,319,58
3083517,319,58
3083525,315,58
3083535,321,58
3083540,318,58
3083558,320,58
3083568,324,58
3083579,319,58
3083589,326,58
3083596,325,58
3083610,321,58
3083620,327,58
3083629,322,58
3083640,327,58
3083650,326,58
3083662,326,58
3083671,327,58
3083680,327,58
3083692,326,58
3083701,335,58
3083712,328,58
3083713,333,58
3083729,334,58
3083745,331,58
3083749,333,58
3083762,332,58
3083774,335,58
3083779,336,58
3083795,332,58
3083797,337,58
3083813,333,58
3083826,337,58
3083832,347,58
3083846,346,58
3083846,349,58
3083862,349,58
3083877,336,58
3083887,338,58
3083895,333,58
3083907,336,58
3083912,338,58
3083928,336,58
3083938,339,58
3083945,327,58
3083959,392,58
3083969,630,56
3083979,659,56
3083989,543,56
3083998,217,56
3083998,317,56
3084013,329,56
3084029,317,56
3084041,319,56
3084050,322,56
3084061,318,56
3084072,325,56
3084079,328,56
3084092,329,56
3084099,335,56
3084112,334,56
3084123,340,56
3084129,342,56
3084144,339,56
3084153,350,56
3084162,353,56
3084175,355,56
3084185,366,56
3084195,369,56
3084205,380,56
3084212,390,56
3084225,394,56
3084233,404,56
3084245,406,56
3084257,404,56
3084262,397,56
3084277,375,56
3084287,353,56
3084296,333,56
3084307,312,56
3084312,305,56
3084328,300,56
3084339,297,56
3084346,301,56
3084359,297,56
3084362,300,56
3084381,299,56
3084390,301,56
3084396,302,56
3084411,303,56
3084412,308,56
3084430,304,56
3084441,303,56
3084446,307,56
3084462,306,56
3084473,309,56
3084479,306,56
3084493,305,56
3084497,307,56
3084512,307,56
3084524,308,56
3084532,310,56
3084544,304,56
3084555,308,56
3084562,309,56
3084576,308,56
3084581,312,56
3084596,309,56
3084606,311,56
3084613,313,56
3084627,311,56
3084630,317,56
3084646,316,56
3084657,314,56
3084668,318,56
3084678,316,56
3084688,322,56
3084696,319,56
3084696,320,56
3084712,325,56
3084730,319,56
3084739,323,56
3084745,321,56
3084760,321,56
3084771,325,56
3084779,325,56
3084791,327,56
3084795,327,56
3084811,324,56
3084821,329,56
3084829,329,56
3084843,327,56
3084846,332,56
3084862,330,56
3084873,330,56
3084884,331,56
3084894,329,56
3084904,333,56
3084914,332,56
3084925,330,56
3084929,340,56
3084945,343,56
3084949,347,56
3084963,349,56
3084976,338,56
3084980,335,56
3084994,333,56
3085007,336,56
3085012,336,56
3085027,331,56
3085038,341,56
3085045,327,56
3085057,365,56
3085068,596,56
3085079,659,56
3085088,609,56
3085099,210,56
3085110,293,56
3085120,331,56
3085129,319,56
3085140,320,56
3085150,324,56
3085161,321,56
3085171,327,56
3085179,329,56
3085192,330,56
3085202,337,56
3085212,334,56
3085223,338,56
3085229,344,56
3085244,345,56
3085247,350,56
3085262,353,56
3085274,358,56
3085279,367,56
3085294,372,56
3085296,383,56
3085312,393,56
3085312,398,56
3085334,412,56
3085345,411,56
3085356,408,56
3085362,403,56
3085377,375,56
3085387,352,56
3085396,328,56
3085407,309,56
3085414,300,56
3085428,293,56
3085439,293,56
3085445,289,56
3085459,288,56
3085469,293,56
3085479,291,56
3085489,292,56
3085498,297,56
3085498,296,56
3085521,300,56
3085529,300,56
3085541,298,56
3085546,302,56
3085562,302,56
3085571,304,56
3085580,302,56
3085592,301,56
3085603,304,56
3085613,300,56
3085613,300,56
3085630,303,56
3085644,298,56
3085654,302,56
3085664,301,56
3085664,302,56
3085680,307,56
3085695,302,56
3085706,305,56
3085712,307,56
3085726,304,56
3085736,311,56
3085746,308,56
3085757,310,56
3085763,311,56
3085778,308,56
3085787,314,56
3085796,314,56
3085807,311,56
3085818,316,56
3085828,312,56
3085839,317,56
3085846,317,56
3085860,315,56
3085870,318,56
3085879,320,56
3085890,320,56
3085897,322,56
3085911,321,56
3085921,323,56
3085929,323,56
3085942,324,56
3085946,326,56
3085962,322,56
3085973,326,56
3085978,327,56
3085993,323,56
3085997,324,56
3086012,325,56
3086012,332,56
3086029,342,56
3086045,337,56
3086055,340,56
3086062,335,56
3086062,328,56
3086080,330,56
3086095,327,56
3086106,330,56
3086112,334,56
3086126,328,56
3086136,325,56
3086146,342,56
3086146,517,55
3086163,658,55
3086178,656,55
3086188,260,55
3086195,273,55
3086209,330,55
3086219,317,55
3086229,311,55
3086234,314,55
3086247,320,55
3086247,316,55
3086271,324,55
3086279,323,55
3086291,325,55
3086296,333,55
3086312,331,55
3086321,338,55
3086329,340,55
3086342,341,55
3086352,349,55
3086363,350,55
3086373,359,55
3086380,367,55
3086394,372,55
3086405,386,55
3086413,393,55
3086425,397,55
3086433,405,55
3086446,404,55
3086455,398,55
3086462,383,55
3086462,357,55
3086487,339,55
3086496,318,55
3086507,304,55
3086512,301,55
3086527,294,55
3086537,297,55
3086546,294,55
3086557,296,55
3086569,302,55
3086578,297,55
3086589,300,55
3086595,304,55
3086610,300,55
3086612,305,55
3086629,304,55
3086641,306,55
3086646,310,55
3086660,305,55
3086671,308,55
3086681,308,55
3086692,308,55
3086702,310,55
3086712,307,55
3086712,309,55
3086729,310,55
3086743,308,55
3086745,313,55
3086762,309,55
3086774,309,55
3086779,314,55
3086788,310,55
3086805,314,55
3086813,312,55
3086813,312,55
3086829,317,55
3086846,315,55
3086856,315,55
3086862,320,55
3086862,315,55
3086887,321,55
3086897,319,55
3086897,318,55
3086918,323,55
3086928,319,55
3086938,325,55
3086948,324,55
3086959,322,55
3086968,328,55
3086978,325,55
3086990,326,55
3086995,329,55
3087010,325,55
3087021,331,55
3087030,331,55
3087041,328,55
3087051,329,55
3087062,330,55
3087071,332,55
3087079,334,55
3087079,331,55
3087095,334,55
3087113,333,55
3087124,334,55
3087129,337,55
3087144,331,55
3087151,333,55
3087161,336,55
3087175,344,55
3087185,349,55
3087196,345,55
3087206,343,55
3087213,337,55
3087213,333,55
3087237,338,55
3087246,333,55
3087257,333,55
3087262,341,55
3087278,330,55
3087284,335,55
3087297,473,55
3087307,658,54
3087318,658,54
3087329,334,54
3087339,249,54
3087349,335,54
3087360,318,54
3087370,315,54
3087379,320,54
3087390,317,54
3087401,325,54
3087412,325,54
3087420,326,54
3087429,330,54
3087442,330,54
3087452,337,54
3087462,336,54
3087473,338,54
3087480,348,54
3087493,348,54
3087503,358,54
3087512,359,54
3087524,366,54
3087530,375,54
3087530,380,54
3087555,393,54
3087563,398,54
3087576,406,54
3087579,411,54
3087595,405,54
3087595,393,54
3087613,370,54
3087627,343,54
3087636,326,54
3087646,312,54
3087646,300,54
3087664,301,54
3087678,293,54
3087689,298,54
3087695,298,54
3087709,294,54
3087719,297,54
3087729,297,54
3087740,300,54
3087746,306,54
3087760,304,54
3087762,307,54
3087781,302,54
3087788,305,54
3087801,310,54
3087812,306,54
3087821,306,54
3087831,309,54
3087842,306,54
3087846,311,54
3087862,306,54
3087874,306,54
3087881,311,54
3087894,307,54
3087896,312,54
3087914,314,54
3087925,311,54
3087935,315,54
3087945,312,54
3087955,314,54
3087963,318,54
3087976,313,54
3087987,315,54
3087996,318,54
3088007,317,54
3088017,321,54
3088027,320,54
3088038,324,54
3088047,321,54
3088058,322,54
3088062,322,54
3088078,325,54
3088089,324,54
3088096,328,54
3088110,323,54
3088120,329,54
3088129,331,54
3088135,328,54
3088145,328,54
3088161,325,54
3088161,330,54
3088182,327,54
3088188,325,54
3088202,338,54
3088211,344,54
3088220,342,54
3088233,346,54
3088238,338,54
3088253,334,54
3088264,333,54
3088274,330,54
3088285,333,54
3088294,332,54
3088304,336,54
3088315,331,54
3088321,332,54
3088335,493,54
3088346,659,54
3088353,658,54
3088367,291,54
3088373,250,54
3088387,329,54
3088397,320,54
3088403,315,54
3088418,319,54
3088428,320,54
3088437,325,54
3088449,328,54
3088455,326,54
3088455,334,54
3088479,333,54
3088487,337,54
3088500,340,54
3088505,340,54
3088520,349,54
3088531,353,54
3088537,354,54
3088552,368,54
3088562,368,54
3088570,380,54
3088570,389,54
3088587,396,54
3088603,407,54
3088613,408,54
3088623,412,54
3088634,409,54
3088644,386,54
3088654,359,54
3088655,336,54
3088671,314,54
3088681,303,54
3088696,293,54
3088704,291,54
3088716,290,54
3088726,286,54
3088736,291,54
3088743,289,54
3088755,291,54
3088755,296,54
3088777,294,54
3088787,299,54
3088787,301,54
3088805,299,54
3088819,304,54
3088829,300,54
3088837,303,54
3088850,305,54
3088854,299,54
3088870,305,54
3088880,301,54
3088887,303,54
3088891,305,54
3088903,303,54
3088921,305,54
3088932,305,54
3088938,302,54
3088938,308,54
3088962,302,54
3088971,305,54
3088983,307,54
3088994,306,54
3089003,308,54
3089014,307,54
3089020,309,54
3089034,312,54
3089044,308,54
3089053,311,54
3089064,315,54
3089070,311,54
3089085,315,54
3089089,316,54
3089102,315,54
3089117,316,54
3089127,315,54
3089137,320,54
3089147,320,54
3089153,318,54
3089167,321,54
3089170,321,54
3089188,322,54
3089199,325,54
3089206,323,54
3089219,327,54
3089230,322,54
3089239,326,54
3089239,340,54
3089254,337,54
3089271,341,54
3089281,336,54
3089287,328,54
3089301,329,54
3089303,326,54
3089321,324,54
3089332,326,54
3089342,327,54
3089353,330,54
3089363,318,54
3089370,401,54
3089384,655,54
3089392,659,54
3089403,477,54
3089415,213,54
3089420,314,54
3089434,322,54
3089445,309,54
3089454,310,54
3089466,315,54
3089470,314,54
3089486,321,54
3089496,320,54
3089505,324,54
3089517,329,54
3089520,329,54
3089537,334,54
3089547,337,54
3089554,338,54
3089569,344,54
3089578,346,54
3089587,355,54
3089599,362,54
3089610,365,54
3089620,378,54
3089630,385,54
3089637,393,54
3089651,401,54
3089661,400,54
3089670,404,54
3089682,393,54
3089691,369,54
3089703,351,54
3089712,326,54
3089721,315,54
3089732,303,54
3089737,296,54
3089753,299,54
3089764,297,54
3089774,295,54
3089785,301,54
3089789,297,54
3089804,302,54
3089814,304,54
3089825,301,54
3089835,307,54
3089846,305,54
3089853,306,54
3089867,307,54
3089872,305,54
3089887,309,54
3089897,309,54
3089904,304,54
3089917,310,54
3089928,305,54
3089937,311,54
3089949,309,54
3089955,305,54
3089955,311,54
3089980,311,54
3089987,312,54
3090000,312,54
3090004,311,54
3090020,313,54
3090030,314,54
3090037,313,54
3090051,320,54
3090062,317,54
3090070,317,54
3090070,320,54
3090088,318,54
3090103,323,54
3090104,322,54
3090121,320,54
3090134,326,54
3090137,319,54
3090154,324,54
3090165,324,54
3090171,321,54
3090185,327,54
3090186,326,54
3090204,326,54
3090216,328,54
3090220,328,54
3090236,330,54
3090247,329,54
3090253,326,54
3090267,333,54
3090277,328,54
3090287,334,54
3090298,334,54
3090308,332,54
3090319,336,54
3090320,333,54
3090338,333,54
3090349,336,54
3090360,333,54
3090370,334,54
3090372,338,54
3090388,347,54
3090401,352,54
3090408,346,54
3090420,342,54
3090432,338,54
3090438,334,54
3090452,335,54
3090455,335,54
3090472,334,54
3090482,339,54
3090494,330,54
3090503,340,54
3090514,484,54
3090520,658,54
3090534,658,54
3090538,322,54
3090554,253,54
3090565,339,54
3090575,319,54
3090585,319,54
3090596,319,54
3090603,321,54
3090616,327,54
3090622,324,54
3090638,332,54
3090647,331,54
3090653,333,54
3090668,340,54
3090678,338,54
3090687,342,54
3090699,349,54
3090707,348,54
3090719,356,54
3090730,359,54
3090740,366,54
3090750,379,54
3090760,384,54
3090770,395,54
3090780,406,54
3090788,406,54
3090788,412,54
3090812,407,54
3090822,396,54
3090832,375,54
3090842,345,54
3090852,332,54
3090863,316,54
3090872,301,54
3090882,304,54
3090887,296,54
3090904,299,54
3090915,300,54
3090920,300,54
3090935,304,54
3090936,302,54
3090955,303,54
3090966,304,54
3090970,305,54
3090987,308,54
3090997,307,54
3091004,307,54
3091004,307,54
3091020,308,54
3091038,310,54
3091048,310,54
3091054,307,54
3091069,309,54
3091078,309,54
3091087,309,54
3091099,312,54
3091109,311,54
3091120,312,54
3091130,314,54
3091138,310,54
3091151,315,54
3091161,310,54
3091171,316,54
3091181,320,54
3091186,314,54
3091202,321,54
3091213,316,54
3091220,317,54
3091233,324,54
3091243,316,54
3091253,320,54
3091264,323,54
3091270,321,54
3091285,324,54
3091288,324,54
3091304,322,54
3091315,327,54
3091320,325,54
3091336,329,54
3091346,330,54
3091356,329,54
3091356,331,54
3091373,323,54
3091387,335,54
3091397,343,54
3091404,338,54
3091404,344,54
3091421,336,54
3091437,331,54
3091448,329,54
3091454,328,54
3091469,332,54
3091480,330,54
3091487,332,54
3091501,331,54
3091511,327,54
3091520,469,54
3091520,658,55
3091538,658,55
3091551,321,55
3091561,234,55
3091570,325,55
3091583,318,55
3091590,313,55
3091603,317,55
3091613,315,55
3091623,318,55
3091633,325,55
3091638,323,55
3091653,325,55
3091665,332,55
3091675,329,55
3091684,336,55
3091695,337,55
3091703,342,55
3091716,349,55
3091725,350,55
3091737,360,55
3091737,365,55
3091755,371,55
3091767,385,55
3091778,391,55
3091787,401,55
3091798,406,55
3091804,406,55
3091819,406,55
3091828,385,55
3091837,358,55
3091850,335,55
3091854,311,55
3091870,298,55
3091880,291,55
3091887,282,55
3091901,284,55
3091903,282,55
3091921,284,55
3091930,286,55
3091938,285,55
3091938,292,55
3091963,291,55
3091971,292,55
3091983,298,55
3091993,294,55
3092004,300,55
3092014,300,55
3092020,297,55
3092034,300,55
3092042,297,55
3092054,301,55
3092065,298,55
3092075,295,55
3092086,298,55
3092096,299,55
3092104,297,55
3092117,302,55
3092122,297,55
3092137,299,55
3092145,302,55
3092155,299,55
3092168,303,55
3092178,302,55
3092188,304,55
3092199,306,55
3092203,306,55
3092219,308,55
3092230,310,55
3092238,309,55
3092250,311,55
3092254,308,55
3092270,313,55
3092281,312,55
3092290,312,55
3092301,317,55
3092312,313,55
3092322,315,55
3092332,320,55
3092337,316,55
3092352,324,55
3092363,322,55
3092370,319,55
3092383,323,55
3092394,324,55
3092403,324,55
3092414,324,55
3092421,320,55
3092435,326,55
3092445,334,55
3092455,337,55
3092466,340,55
3092476,338,55
3092487,334,55
3092497,331,55
3092504,326,55
3092516,332,55
3092528,330,55
3092538,332,55
3092539,334,55
3092554,318,55
3092569,366,55
3092579,578,55
3092586,659,55
3092599,619,55
3092603,219,55
3092620,302,55
3092631,330,55
3092637,311,55
3092651,318,55
3092654,317,55
3092671,319,55
3092682,327,55
3092687,322,55
3092687,330,55
3092704,333,55
3092721,331,55
3092733,339,55
3092737,338,55
3092753,342,55
3092764,348,55
3092771,349,55
3092785,357,55
3092787,360,55
3092805,368,55
3092815,378,55
3092820,385,55
3092835,396,55
3092837,402,55
3092853,402,55
3092853,410,55
3092877,401,55
3092888,385,55
3092897,359,55
3092903,337,55
3092918,322,55
3092928,307,55
3092937,304,55
3092948,301,55
3092955,295,55
3092955,301,55
3092980,304,55
3092990,302,55
3092999,305,55
3093004,302,55
3093021,308,55
3093031,308,55
3093037,307,55
3093051,312,55
3093062,309,55
3093070,309,55
3093082,314,55
3093093,307,55
3093103,310,55
3093113,311,55
3093122,309,55
3093134,311,55
3093137,311,55
3093154,310,55
3093164,314,55
3093172,310,55
3093186,314,55
3093196,312,55
3093205,313,55
3093205,315,55
3093221,314,55
3093237,317,55
3093237,318,55
3093255,317,55
3093267,320,55
3093278,316,55
3093288,320,55
3093288,323,55
3093308,319,55
3093319,322,55
3093329,320,55
3093339,319,55
3093349,325,55
3093355,322,55
3093370,322,55
3093379,326,55
3093387,324,55
3093401,329,55
3093411,325,55
3093420,324,55
3093432,328,55
3093442,327,55
3093452,333,55
3093463,330,55
3093470,330,55
3093483,331,55
3093493,329,55
3093504,333,55
3093514,334,55
3093521,327,55
3093535,334,55
3093544,344,55
3093553,346,55
3093564,345,55
3093576,341,55
3093586,338,55
3093596,336,55
3093603,332,55
3093617,334,55
3093623,332,55
3093637,333,55
3093638,335,55
3093656,322,55
3093668,418,55
3093678,656,55
3093687,659,55
3093699,462,55
3093708,215,55
3093719,326,55
3093720,324,55
3093738,312,55
3093750,318,55
3093754,317,55
3093770,319,55
3093781,322,55
3093787,322,55
3093801,330,55
3093812,333,55
3093821,333,55
3093821,338,55
3093837,338,55
3093852,344,55
3093853,347,55
3093870,346,55
3093880,358,55
3093894,360,55
3093904,370,55
3093915,380,55
3093921,383,55
3093921,399,55
3093947,402,55
3093954,405,55
3093966,410,55
3093971,394,55
3093987,374,55
3093987,353,55
3094005,326,55
3094018,318,55
3094028,302,55
3094037,299,55
3094048,299,55
3094054,294,55
3094069,301,55
3094079,302,55
3094087,301,55
3094100,305,55
3094103,300,55
3094120,306,55
3094130,309,55
3094138,302,55
3094151,306,55
3094157,309,55
3094170,308,55
3094182,312,55
3094192,304,55
3094202,309,55
3094205,309,55
3094221,305,55
3094231,310,55
3094244,308,55
3094254,312,55
3094264,309,55
3094270,313,55
3094279,311,55
3094289,311,55
3094304,309,55
3094315,314,55
3094320,311,55
3094335,318,55
3094346,316,55
3094354,314,55
3094367,320,55
3094372,317,55
3094387,319,55
3094397,322,55
3094403,319,55
3094417,326,55
3094428,322,55
3094437,321,55
3094449,326,55
3094459,319,55
3094470,326,55
3094480,326,55
3094487,327,55
3094500,328,55
3094504,330,55
3094521,331,55
3094531,334,55
3094537,332,55
3094552,333,55
3094554,330,55
3094570,331,55
3094583,335,55
3094592,332,55
3094603,335,55
3094603,331,55
3094621,335,55
3094634,349,55
3094644,351,55
3094654,349,55
3094665,350,55
3094671,337,55
3094685,335,55
3094696,335,55
3094705,334,55
3094716,336,55
3094726,335,55
3094736,339,55
3094739,328,55
3094754,377,55
3094767,627,55
3094778,659,55
3094788,592,55
3094798,206,55
3094804,298,55
3094819,331,55
3094828,321,55
3094838,318,55
3094838,324,55
3094853,323,55
3094870,326,55
3094881,330,55
3094887,328,55
3094901,335,55
3094903,336,55
3094921,338,55
3094932,345,55
3094938,345,55
3094953,351,55
3094963,355,55
3094971,358,55
3094983,368,55
3094987,372,55
3095003,384,55
3095015,396,55
3095021,401,55
3095035,415,55
3095040,416,55
3095054,416,55
3095065,408,55
3095070,383,55
3095086,356,55
3095096,332,55
3095104,311,55
3095117,301,55
3095122,293,55
3095132,288,55
3095147,290,55
3095156,285,55
3095168,291,55
3095178,291,55
3095187,291,55
3095199,296,55
3095209,295,55
3095220,299,55
3095230,300,55
3095238,297,55
3095238,303,55
3095255,302,55
3095270,303,55
3095280,305,55
3095287,302,55
3095301,302,55
3095304,300,55
3095320,304,55
3095332,304,55
3095342,301,55
3095354,304,55
3095363,305,55
3095370,303,55
3095383,306,55
3095389,305,55
3095404,305,55
3095415,305,55
3095425,308,55
3095435,311,55
3095446,311,55
3095455,306,55
3095455,314,55
3095476,308,55
3095486,313,55
3095497,314,55
3095504,311,55
3095517,316,55
3095521,316,55
3095536,314,55
3095549,323,55
3095555,317,55
3095569,321,55
3095579,324,55
3095588,321,55
3095600,325,55
3095604,324,55
3095620,324,55
3095631,324,55
3095638,320,55
3095651,329,55
3095660,343,55
3095670,342,55
3095670,344,55
3095692,334,55
3095703,329,55
3095706,333,55
3095722,327,55
3095732,330,55
3095738,326,55
3095753,331,55
3095764,331,55
3095770,318,55
3095785,367,55
3095789,588,55
3095803,659,55
3095815,611,55
3095820,211,55
3095836,298,55
3095846,327,55
3095853,309,55
3095853,316,55
3095871,314,55
3095887,314,55
3095898,322,55
3095904,321,55
3095904,326,55
3095929,326,55
3095939,331,55
3095939,335,55
3095960,333,55
3095969,339,55
3095980,345,55
3095987,345,55
3096000,356,55
3096011,359,55
3096020,365,55
3096030,378,55
3096039,382,55
3096042,393,55
3096054,404,55
3096071,406,55
3096081,409,55
3096093,398,55
3096103,380,55
3096113,353,55
3096120,328,55
3096134,316,55
3096139,300,55
3096154,296,55
3096164,296,55
3096170,291,55
3096185,292,55
3096193,294,55
3096203,294,55
3096203,298,55
3096218,295,55
3096237,299,55
3096247,301,55
3096256,299,55
3096267,303,55
3096275,302,55
3096287,303,55
3096298,306,55
3096308,302,55
3096319,304,55
3096329,304,55
3096340,299,55
3096349,307,55
3096359,302,55
3096370,304,55
3096381,307,55
3096390,306,55
3096401,309,55
3096411,308,55
3096422,307,55
3096432,310,55
3096440,306,55
3096440,311,55
3096458,313,55
3096472,308,55
3096484,314,55
3096491,313,55
3096504,312,55
3096514,317,55
3096523,314,55
3096534,315,55
3096543,316,55
3096555,315,55
3096557,322,55
3096573,316,55
3096585,321,55
3096596,322,55
3096606,318,55
3096617,324,55
3096623,322,55
3096637,317,55
3096647,322,55
3096656,320,55
3096668,325,55
3096679,324,55
3096689,323,55
3096699,326,55
3096707,323,55
3096720,325,55
3096730,327,55
3096740,326,55
3096750,333,55
3096757,328,55
3096771,326,55
3096775,335,55
3096790,345,55
3096790,350,55
3096812,343,55
3096822,338,55
3096833,336,55
3096840,334,55
3096853,328,55
3096858,334,55
3096873,326,55
3096884,335,55
3096890,332,55
3096904,322,55
3096915,354,55
3096923,548,55
3096935,659,55
3096942,652,55
3096942,236,55
3096968,285,55
3096973,330,55
3096987,311,55
3096997,313,55
3097007,314,55
3097018,322,55
3097028,320,55
3097037,322,55
3097048,329,55
3097058,332,55
3097069,336,55
3097078,335,55
3097090,337,55
3097100,347,55
3097109,346,55
3097120,352,55
3097131,359,55
3097141,362,55
3097141,374,55
3097161,379,55
3097171,389,55
3097182,402,55
3097191,404,55
3097202,409,55
3097213,415,55
3097223,409,55
3097233,399,55
3097240,372,55
3097254,345,55
3097264,331,55
3097273,316,55
3097285,309,55
3097291,303,55
3097291,301,55
3097316,304,55
3097324,303,55
3097336,306,55
3097346,309,55
3097356,306,55
3097367,312,55
3097374,311,55
3097388,309,55
3097390,312,55
3097408,311,55
3097408,314,55
3097424,312,55
3097439,310,55
3097449,314,55
3097456,309,55
3097470,311,55
3097474,312,55
3097490,309,55
3097500,314,55
3097507,313,55
3097521,310,55
3097531,313,55
3097540,311,55
3097551,314,55
3097560,314,55
3097572,314,55
3097582,319,55
3097593,312,55
3097603,318,55
3097613,320,55
3097623,317,55
3097633,318,55
3097640,318,55
3097640,317,55
3097665,321,55
3097673,319,55
3097685,323,55
3097696,324,55
3097706,322,55
3097716,325,55
3097726,322,55
3097737,323,55
3097747,328,55
3097757,323,55
3097767,329,55
3097775,328,55
3097787,326,55
3097799,328,55
3097806,324,55
3097819,328,55
3097828,330,55
3097840,324,55
3097850,328,55
3097857,333,55
3097857,344,55
3097875,348,55
3097889,337,55
3097901,338,55
3097907,332,55
3097922,327,55
3097930,331,55
3097940,325,55
3097953,327,55
3097957,329,55
3097973,327,55
3097983,322,55
3097990,417,55
3098004,658,56
3098014,659,56
3098024,442,56
3098035,207,56
3098045,316,56
3098056,313,56
3098065,313,56
3098073,312,56
3098086,316,56
3098097,320,56
3098107,323,56
3098108,325,56
3098124,327,56
3098137,329,56
3098140,335,56
3098158,334,56
3098158,338,56
3098174,346,56
3098184,346,56
3098199,353,56
3098207,357,56
3098210,365,56
3098224,374,56
3098240,383,56
3098251,395,56
3098258,404,56
3098258,411,56
3098274,415,56
3098291,415,56
3098301,404,56
3098308,381,56
3098322,349,56
3098332,330,56
3098341,306,56
3098353,297,56
3098363,294,56
3098374,287,56
3098383,285,56
3098389,288,56
3098404,286,56
3098415,290,56
3098425,289,56
3098435,293,56
3098444,294,56
3098457,296,56
3098466,300,56
3098473,298,56
3098487,299,56
3098497,304,56
3098506,300,56
3098517,304,56
3098524,303,56
3098537,299,56
3098549,301,56
3098556,301,56
3098569,300,56
3098574,301,56
3098590,300,56
3098600,303,56
3098607,301,56
3098621,301,56
3098623,307,56
3098641,301,56
3098651,307,56
3098657,305,56
3098672,305,56
3098682,312,56
3098692,310,56
3098703,309,56
3098713,314,56
3098723,309,56
3098733,315,56
3098742,315,56
3098754,313,56
3098764,318,56
3098774,316,56
3098785,320,56
3098790,321,56
3098805,317,56
3098808,319,56
3098824,322,56
3098836,339,56
3098847,337,56
3098857,331,56
3098867,331,56
3098874,323,56
3098888,320,56
3098889,324,56
3098907,320,56
3098908,322,56
3098924,323,56
3098934,325,56
3098941,315,56
3098956,390,56
3098970,648,56
3098974,659,56
3098990,496,56
3099001,203,56
3099007,309,56
3099007,316,56
3099031,310,56
3099042,308,56
3099052,313,56
3099059,319,56
3099072,318,56
3099083,321,56
3099091,322,56
3099091,326,56
3099107,331,56
3099123,330,56
3099133,337,56
3099142,343,56
3099154,341,56
3099156,348,56
3099173,353,56
3099182,360,56
3099193,368,56
3099206,373,56
3099216,387,56
3099223,395,56
3099236,400,56
3099247,408,56
3099258,404,56
3099258,393,56
3099274,372,56
3099288,345,56
3099299,329,56
3099309,309,56
3099319,299,56
3099329,295,56
3099341,292,56
3099350,292,56
3099358,289,56
3099370,292,56
3099374,300,56
3099391,295,56
3099401,301,56
3099407,304,56
3099407,300,56
3099432,303,56
3099442,303,56
3099453,306,56
3099463,307,56
3099473,304,56
3099484,308,56
3099491,305,56
3099504,308,56
3099507,310,56
3099524,304,56
3099535,310,56
3099543,309,56
3099555,305,56
3099565,310,56
3099573,311,56
3099585,312,56
3099597,313,56
3099606,308,56
3099617,315,56
3099624,315,56
3099638,312,56
3099647,316,56
3099657,312,56
3099668,317,56
3099673,317,56
3099689,314,56
3099691,319,56
3099707,318,56
3099707,319,56
3099731,323,56
3099741,321,56
3099751,325,56
3099757,326,56
3099757,325,56
3099773,328,56
3099790,323,56
3099801,326,56
3099812,329,56
3099822,327,56
3099833,330,56
3099843,329,56
3099853,329,56
3099864,334,56
3099874,328,56
3099884,335,56
3099893,333,56
3099904,331,56
3099915,334,56
3099924,327,56
3099936,337,56
3099946,346,56
3099956,348,56
3099966,347,56
3099976,343,56
3099986,336,56
3099997,339,56
3100007,330,56
3100017,337,56
3100024,335,56
3100038,333,56
3100049,335,56
3100056,327,56
3100069,423,56
3100079,657,56
3100090,659,56
3100100,471,56
3100108,219,56
3100121,323,56
3100131,323,56
3100140,311,56
3100151,315,56
3100161,318,56
3100172,316,56
3100182,324,56
3100191,323,56
3100203,327,56
3100213,331,56
3100224,329,56
3100234,335,56
3100243,337,56
3100253,340,56
3100265,345,56
3100273,346,56
3100285,357,56
3100290,361,56
3100306,364,56
3100306,377,56
3100324,382,56
3100336,392,56
3100343,400,56
3100356,398,56
3100367,405,56
3100377,397,56
3100388,378,56
3100398,360,56
3100406,334,56
3100418,320,56
3100428,309,56
3100439,301,56
3100443,299,56
3100456,295,56
3100470,297,56
3100482,301,56
3100490,299,56
3100501,302,56
3100507,302,56
3100521,302,56
3100531,306,56
3100540,303,56
3100552,306,56
3100557,306,56
3100572,301,56
3100583,308,56
3100593,303,56
3100603,305,56
3100614,306,56
3100624,305,56
3100634,309,56
3100643,307,56
3100654,305,56
3100657,310,56
3100673,307,56
3100686,310,56
3100692,309,56
3100706,307,56
3100717,314,56
3100724,309,56
3100737,311,56
3100743,314,56
3100757,311,56
3100768,314,56
3100773,317,56
3100788,316,56
3100799,320,56
3100808,317,56
3100819,320,56
3100829,323,56
3100840,318,56
3100850,324,56
3100858,323,56
3100858,320,56
3100881,325,56
3100889,321,56
3100901,325,56
3100911,327,56
3100922,323,56
3100932,328,56
3100940,327,56
3100944,329,56
3100957,332,56
3100973,326,56
3100975,329,56
3100989,330,56
3101003,331,56
3101014,333,56
3101025,332,56
3101030,334,56
3101045,332,56
3101055,332,56
3101065,341,56
3101073,346,56
3101085,343,56
3101097,348,56
3101107,338,56
3101117,336,56
3101123,336,56
3101138,332,56
3101144,334,56
3101156,332,56
3101168,336,56
3101179,326,56
3101189,344,56
3101199,535,56
3101207,659,56
3101219,657,56
3101231,270,56
3101240,268,56
3101250,332,56
3101258,317,56
3101271,312,56
3101281,320,56
3101290,320,56
3101301,324,56
3101313,326,56
3101322,326,56
3101333,335,56
3101340,336,56
3101354,336,56
3101364,342,56
3101373,343,56
3101383,351,56
3101394,348,56
3101394,357,56
3101407,367,56
3101424,370,56
3101433,378,56
3101444,390,56
3101456,398,56
3101456,407,56
3101474,413,56
3101487,412,56
3101497,415,56
3101506,398,56
3101518,379,56
3101527,356,56
3101538,327,56
3101549,314,56
3101556,306,56
3101569,297,56
3101578,300,56
3101590,296,56
3101600,298,56
3101610,296,56
3101620,298,56
3101631,302,56
3101641,299,56
3101651,304,56
3101657,304,56
3101657,305,56
3101673,305,56
3101690,308,56
3101703,305,56
3101713,308,56
3101723,304,56
3101732,306,56
3101740,308,56
3101755,304,56
3101765,308,56
3101774,305,56
3101785,307,56
3101795,305,56
3101806,302,56
3101815,311,56
3101824,308,56
3101836,309,56
3101846,313,56
3101857,310,56
3101867,313,56
3101873,315,56
3101888,313,56
3101897,318,56
3101906,314,56
3101918,316,56
3101929,320,56
3101939,317,56
3101949,320,56
3101957,318,56
3101970,319,56
3101980,322,56
3101990,320,56
3102001,322,56
3102008,321,56
3102021,316,56
3102032,326,56
3102040,333,56
3102052,336,56
3102062,340,56
3102072,330,56
3102083,326,56
3102091,323,56
3102103,322,56
3102113,325,56
3102123,322,56
3102134,324,56
3102140,324,56
3102145,318,56
3102165,447,56
3102174,658,56
3102182,658,56
3102192,348,56
3102206,223,56
3102217,320,56
3102223,313,56
3102232,306,56
3102247,313,56
3102257,310,56
3102267,317,56
3102278,321,56
3102288,320,56
3102289,326,56
3102306,325,56
3102306,327,56
3102324,335,56
3102340,334,56
3102350,341,56
3102359,344,56
3102370,347,56
3102381,356,56
3102391,358,56
3102401,370,56
3102411,377,56
3102422,386,56
3102432,397,56
3102441,401,56
3102453,404,56
3102463,407,56
3102474,389,56
3102484,371,56
3102490,342,56
3102504,319,56
3102514,308,56
3102525,293,56
3102535,290,56
3102544,291,56
3102555,288,56
3102566,291,56
3102574,292,56
3102574,293,56
3102591,297,56
3102606,294,56
3102617,301,56
3102623,303,56
3102632,298,56
3102648,304,56
3102657,301,56
3102668,305,56
3102673,307,56
3102689,301,56
3102689,306,56
3102707,304,56
3102720,304,56
3102723,304,56
3102741,303,56
3102751,305,56
3102756,305,56
3102771,305,56
3102775,308,56
3102791,309,56
3102801,309,56
3102807,312,56
3102822,310,56
3102833,314,56
3102840,313,56
3102853,311,56
3102858,315,56
3102873,313,56
3102884,317,56
3102890,316,56
3102905,317,56
3102907,321,56
3102924,318,56
3102933,321,56
3102945,323,56
3102956,319,56
3102967,324,56
3102973,324,56
3102987,323,56
3102997,327,56
3103007,325,56
3103018,326,56
3103028,329,56
3103038,326,56
3103049,332,56
3103059,329,56
3103069,329,56
3103079,330,56
3103089,325,56
3103100,336,56
3103108,342,56
3103120,342,56
3103131,346,56
3103140,339,56
3103147,332,56
3103161,332,56
3103172,330,56
3103182,333,56
3103190,330,56
3103203,333,56
3103213,332,56
3103224,324,56
3103229,435,56
3103241,658,56
3103254,659,56
3103266,421,56
3103274,223,56
3103281,329,56
3103291,324,56
3103306,312,56
3103307,316,56
3103324,317,56
3103336,319,56
3103347,325,56
3103357,324,56
3103367,326,56
3103376,329,56
3103388,331,56
3103397,337,56
3103407,337,56
3103418,343,56
3103423,346,56
3103439,348,56
3103449,358,56
3103456,361,56
3103456,365,56
3103474,377,56
3103489,385,56
3103489,393,56
3103510,400,56
3103522,400,56
3103532,406,56
3103540,394,56
3103552,378,56
3103562,358,56
3103572,332,56
3103583,318,56
3103589,309,56
3103604,302,56
3103613,302,56
3103624,297,56
3103634,303,56
3103642,303,56
3103654,301,56
3103665,305,56
3103674,306,56
3103686,306,56
3103690,311,56
3103706,305,56
3103706,306,56
3103725,308,56
3103737,308,56
3103746,311,56
3103757,307,56
3103768,310,56
3103778,307,56
3103788,307,56
3103799,311,56
3103806,310,56
3103819,307,56
3103829,313,56
3103840,312,56
3103850,313,56
3103858,311,56
3103858,310,56
3103874,316,56
3103890,313,56
3103902,314,56
3103906,316,56
3103922,313,56
3103932,319,56
3103940,316,56
3103953,319,56
3103957,325,56
3103973,321,56
3103983,321,56
3103994,321,56
3104004,320,56
3104014,328,56
3104024,324,56
3104035,325,56
3104041,328,56
3104056,326,56
3104066,329,56
3104073,327,56
3104086,328,56
3104097,333,56
3104107,328,56
3104108,332,56
3104124,332,56
3104134,330,56
3104148,337,56
3104156,334,56
3104168,335,56
3104179,336,56
3104189,336,56
3104199,336,56
3104207,335,56
3104220,342,56
3104231,351,56
3104240,349,56
3104250,354,56
3104257,350,56
3104271,339,56
3104282,341,56
3104290,338,56
3104302,338,56
3104309,339,56
3104322,335,56
3104325,338,56
3104341,329,56
3104354,418,56
3104363,658,56
3104374,659,56
3104384,500,56
3104389,214,56
3104404,319,56
3104414,329,56
3104424,314,56
3104429,317,56
3104447,323,56
3104456,321,56
3104467,324,56
3104474,329,56
3104487,329,56
3104497,333,56
3104507,336,56
3104517,341,56
3104524,342,56
3104538,343,56
3104549,350,56
3104559,354,56
3104559,361,56
3104579,367,56
3104589,371,56
3104591,385,56
3104606,389,56
3104620,397,56
3104631,409,56
3104641,410,56
3104652,415,56
3104657,408,56
3104671,387,56
3104682,365,56
3104690,338,56
3104690,317,56
3104710,308,56
3104723,297,56
3104734,300,56
3104741,299,56
3104754,292,56
3104756,298,56
3104773,295,56
3104785,300,56
3104790,302,56
3104790,299,56
3104816,303,56
3104824,306,56
3104836,304,56
3104840,303,56
3104856,305,56
3104856,304,56
3104876,303,56
3104888,304,56
3104890,306,56
3104907,301,56
3104918,305,56
3104929,305,56
3104939,303,56
3104950,309,56
3104956,304,56
3104970,306,56
3104980,309,56
3104990,308,56
3105001,309,56
3105007,312,56
3105022,308,56
3105023,312,56
3105040,312,56
3105052,312,56
3105063,314,56
3105073,312,56
3105082,314,56
3105090,314,56
3105090,313,56
3105108,316,56
3105124,315,56
3105134,317,56
3105140,318,56
3105154,316,56
3105165,321,56
3105174,318,56
3105186,318,56
3105196,317,56
3105206,319,56
3105217,329,56
3105225,330,56
3105233,331,56
3105247,334,56
3105256,321,56
3105256,320,56
3105273,320,56
3105283,317,56
3105290,323,56
3105307,320,56
3105307,322,56
3105325,314,56
3105334,360,56
3105349,605,56
3105358,659,56
3105370,568,56
3105381,198,56
3105389,292,56
3105402,317,56
3105407,307,56
3105423,305,56
3105424,313,56
3105440,309,56
3105453,314,56
3105457,318,56
3105473,317,56
3105484,324,56
3105491,325,56
3105504,327,56
3105506,335,56
3105525,336,56
3105535,336,56
3105545,345,56
3105556,349,56
3105559,355,56
3105576,362,56
3105586,370,56
3105597,383,56
3105606,387,56
3105617,399,56
3105623,401,56
3105638,400,56
3105647,396,56
3105657,373,56
3105668,351,56
3105676,326,56
3105689,306,56
3105699,301,56
3105707,290,56
3105720,287,56
3105731,290,56
3105740,287,56
3105751,290,56
3105761,290,56
3105771,291,56
3105782,295,56
3105790,294,56
3105802,300,56
3105809,302,56
3105822,300,56
3105834,306,56
3105841,302,56
3105853,301,56
3105863,306,56
3105874,300,56
3105884,304,56
3105892,304,56
3105904,302,56
3105916,304,56
3105925,302,56
3105936,305,56
3105946,305,56
3105956,302,56
3105967,309,56
3105975,306,56
3105982,308,56
3105991,315,56
3106007,307,56
3106018,311,56
3106024,312,56
3106032,310,56
3106049,315,56
3106057,312,56
3106069,316,56
3106073,318,56
3106089,315,56
3106100,323,56
3106109,320,56
3106120,321,56
3106132,324,56
3106141,321,56
3106151,322,56
3106162,325,56
3106173,324,56
3106182,326,56
3106189,327,56
3106203,327,56
3106213,331,56
3106224,327,56
3106224,330,56
3106240,330,56
3106255,330,56
3106265,332,56
3106274,329,56
3106285,329,56
3106296,333,56
3106305,329,56
3106315,332,56
3106324,328,56
3106331,338,56
3106347,344,56
3106356,342,56
3106356,349,56
3106375,342,56
3106388,333,56
3106397,336,56
3106407,333,56
3106419,334,56
3106429,335,56
3106439,335,56
3106442,331,56
3106458,340,56
3106470,499,56
3106473,658,56
3106490,658,56
3106490,301,56
3106511,261,56
3106521,331,56
3106525,319,56
3106540,314,56
3106552,315,56
3106560,320,56
3106573,319,56
3106583,325,56
3106590,325,56
3106604,327,56
3106613,331,56
3106623,332,56
3106634,338,56
3106645,340,56
3106654,342,56
3106664,352,56
3106674,351,56
3106674,358,56
3106690,365,56
3106706,369,56
3106706,379,56
3106723,390,56
3106737,397,56
3106747,403,56
3106757,403,56
3106768,405,56
3106778,395,56
3106789,372,56
3106791,353,56
3106806,331,56
3106820,314,56
3106824,310,56
3106840,301,56
3106850,302,56
3106857,302,56
3106857,300,56
3106874,306,56
3106890,300,56
3106902,303,56
3106907,305,56
3106907,306,56
3106932,311,56
3106942,308,56
3106953,307,56
3106963,311,56
3106973,308,56
3106977,311,56
3106991,308,56
3107000,308,56
3107007,312,56
3107023,308,56
3107035,310,56
3107046,312,56
3107056,308,56
3107065,314,56
3107074,309,56
3107087,309,56
3107090,315,56
3107107,310,56
3107117,314,56
3107123,314,56
3107132,315,56
3107148,318,56
3107157,316,56
3107168,318,56
3107173,318,56
3107189,316,56
3107193,321,56
3107207,320,56
3107207,320,56
3107225,323,56
3107241,322,56
3107251,324,56
3107257,324,56
3107257,323,56
3107282,328,56
3107290,326,56
3107290,327,56
3107312,330,56
3107322,326,56
3107332,327,56
3107343,329,56
3107354,330,56
3107363,333,56
3107374,331,56
3107384,334,56
3107390,333,56
3107405,329,56
3107415,333,56
3107423,330,56
3107436,332,56
3107441,334,56
3107456,333,56
3107467,344,56
3107473,347,56
3107487,345,56
3107497,345,56
3107506,336,56
3107518,336,56
3107524,335,56
3107538,334,56
3107549,335,56
3107557,333,56
3107569,335,56
3107579,329,56
3107590,385,56
3107600,631,56
3107608,659,56
3107620,580,56
3107624,214,56
3107640,304,56
3107652,327,56
3107661,317,56
3107672,314,56
3107682,320,56
3107692,320,56
3107703,324,56
3107713,328,56
3107723,326,56
3107733,335,56
3107741,337,56
3107755,335,56
3107766,345,56
3107774,344,56
3107785,347,56
3107795,354,56
3107806,356,56
3107809,365,56
3107824,371,56
3107836,383,56
3107847,393,56
3107856,399,56
3107867,411,56
3107873,415,56
3107888,414,56
3107893,413,56
3107907,393,56
3107918,370,56
3107929,348,56
3107939,327,56
3107941,314,56
3107957,302,56
3107970,298,56
3107981,298,56
3107990,294,56
3108001,297,56
3108011,300,56
3108021,299,56
3108032,304,56
3108040,301,56
3108052,303,56
3108062,305,56
3108073,303,56
3108083,307,56
3108090,308,56
3108104,306,56
3108113,308,56
3108123,306,56
3108134,307,56
3108141,309,56
3108152,308,56
3108156,308,56
3108174,304,56
3108186,307,56
3108192,309,56
3108207,308,56
3108218,312,56
3108226,309,56
3108237,309,56
3108247,312,56
3108257,310,56
3108268,315,56
3108274,316,56
3108288,310,56
3108299,316,56
3108306,313,56
3108319,313,56
3108330,318,56
3108340,315,56
3108350,321,56
3108358,320,56
3108370,318,56
3108381,323,56
3108391,319,56
3108392,323,56
3108408,325,56
3108408,322,56
3108432,323,56
3108441,323,56
3108453,333,56
3108457,337,56
3108474,334,56
3108484,336,56
3108490,327,56
3108505,324,56
3108507,330,56
3108523,324,56
3108535,325,56
3108540,328,56
3108556,325,56
3108559,320,56
3108575,405,56
3108585,657,56
3108591,659,56
3108606,453,56
3108606,206,56
3108623,313,56
3108632,315,56
3108647,313,56
3108657,310,56
3108657,313,56
3108676,319,56
3108689,317,56
3108700,322,56
3108707,324,56
3108719,325,56
3108730,330,56
3108741,331,56
3108751,338,56
3108757,340,56
3108771,344,56
3108782,351,56
3108792,354,56
3108792,362,56
3108806,371,56
3108822,376,56
3108832,389,56
3108840,396,56
3108854,403,56
3108857,411,56
3108873,405,56
3108884,394,56
3108890,375,56
3108905,348,56
3108907,330,56
3108924,309,56
3108933,298,56
3108946,295,56
3108956,288,56
3108967,290,56
3108973,289,56
3108987,291,56
3108990,298,56
3109007,291,56
3109017,296,56
3109023,299,56
3109038,298,56
3109040,300,56
3109058,302,56
3109069,303,56
3109079,305,56
3109090,302,56
3109090,304,56
3109108,304,56
3109120,302,56
3109132,304,56
3109141,302,56
3109152,304,56
3109157,305,56
3109157,302,56
3109182,307,56
3109191,307,56
3109203,306,56
3109213,309,56
3109223,308,56
3109233,310,56
3109241,309,56
3109254,308,56
3109257,314,56
3109274,312,56
3109283,314,56
3109291,311,56
3109306,312,56
3109307,315,56
3109325,314,56
3109333,317,56
3109347,318,56
3109357,316,56
3109367,319,56
3109373,318,56
3109388,317,56
3109390,321,56
3109407,317,56
3109418,321,56
3109423,321,56
3109439,320,56
3109450,325,56
3109456,323,56
3109470,322,56
3109480,326,56
3109490,322,56
3109500,327,56
3109511,327,56
3109521,324,56
3109531,331,56
3109540,327,56
3109553,330,56
3109562,329,56
3109572,330,56
3109583,342,56
3109592,342,56
3109592,342,56
3109607,340,56
3109624,329,56
3109633,328,56
3109643,332,56
3109655,330,56
3109666,329,56
3109674,331,56
3109674,331,56
3109691,325,56
3109706,414,56
