Timestamp,ECGValue,BPM
815493,284,57
815503,294,57
815513,306,57
815524,278,57
815534,308,57
815544,293,57
815555,286,57
815564,311,57
815575,281,57
815585,301,57
815596,303,57
815606,286,57
815616,313,57
815625,292,57
815637,299,57
815647,315,57
815657,288,57
815667,316,57
815677,300,57
815687,296,57
815698,321,57
815708,291,57
815719,314,57
815729,314,57
815739,298,57
815749,327,57
815760,304,57
815769,312,57
815780,324,57
815791,297,57
815801,327,57
815811,316,57
815821,306,57
815832,334,57
815842,305,57
815852,325,57
815862,324,57
815873,308,57
815883,337,57
815893,313,57
815903,319,57
815914,335,57
815924,309,57
815934,338,57
815945,324,57
815955,318,57
815965,358,57
815975,337,57
815985,348,57
815996,348,57
816006,316,57
816016,340,57
816027,315,57
816037,322,57
816047,336,57
816057,307,57
816067,336,57
816077,319,57
816088,307,57
816099,483,57
816109,653,56
816119,653,56
816129,389,56
816139,190,56
816150,323,56
816160,305,56
816170,301,56
816181,322,56
816191,297,56
816200,324,56
816212,317,56
816222,310,56
816232,340,56
816242,313,56
816252,333,56
816262,341,56
816272,326,56
816283,358,56
816293,340,56
816303,349,56
816314,372,56
816324,352,56
816334,389,56
816345,388,56
816355,385,56
816365,426,56
816375,404,56
816386,427,56
816396,430,56
816406,397,56
816417,397,56
816427,338,56
816437,312,56
816447,309,56
816458,270,56
816468,290,56
816478,278,56
816488,263,56
816498,295,56
816508,269,56
816519,286,56
816529,288,56
816539,266,56
816549,300,56
816560,280,56
816570,282,56
816580,304,56
816591,276,56
816601,304,56
816612,298,56
816622,284,56
816632,311,56
816643,282,56
816652,299,56
816663,307,56
816673,282,56
816684,312,56
816694,291,56
816704,294,56
816714,314,56
816725,285,56
816734,312,56
816745,304,56
816756,293,56
816765,320,56
816775,291,56
816786,309,56
816797,315,56
816807,287,56
816817,322,56
816827,302,56
816837,302,56
816847,324,56
816857,294,56
816868,322,56
816878,314,56
816889,302,56
816899,329,56
816910,304,56
816920,319,56
816930,326,56
816940,300,56
816950,329,56
816961,309,56
816971,311,56
816982,337,56
816991,308,56
817002,332,56
817012,328,56
817022,312,56
817032,341,56
817042,311,56
817053,327,56
817064,335,56
817074,314,56
817083,346,56
817094,323,56
817104,325,56
817115,362,56
817125,331,56
817135,351,56
817145,341,56
817156,319,56
817166,345,56
817176,315,56
817186,326,56
817197,335,56
817207,311,56
817217,338,56
817228,306,56
817237,345,56
817248,605,54
817259,653,54
817268,652,54
817279,263,54
817290,249,54
817299,342,54
817309,297,54
817320,308,54
817330,321,54
817340,299,54
817350,331,54
817361,313,54
817371,313,54
817381,341,54
817391,313,54
817402,334,54
817412,336,54
817422,324,54
817433,356,54
817443,334,54
817454,350,54
817464,366,54
817474,347,54
817483,385,54
817495,378,54
817505,384,54
817515,415,54
817525,389,54
817535,417,54
817546,413,54
817556,384,54
817566,390,54
817577,334,54
817587,323,54
817597,317,54
817607,279,54
817618,304,54
817628,287,54
817638,281,54
817649,304,54
817658,276,54
817668,302,54
817680,301,54
817689,283,54
817700,314,54
817710,291,54
817720,302,54
817730,314,54
817740,287,54
817750,315,54
817762,300,54
817771,296,54
817782,321,54
817792,290,54
817803,310,54
817813,309,54
817823,289,54
817834,319,54
817844,293,54
817854,301,54
817864,314,54
817874,288,54
817884,316,54
817894,301,54
817905,295,54
817916,322,54
817925,290,54
817936,314,54
817946,315,54
817956,298,54
817966,327,54
817977,303,54
817987,309,54
817998,324,54
818007,296,54
818017,328,54
818028,313,54
818038,304,54
818049,329,54
818059,302,54
818069,323,54
818080,326,54
818090,304,54
818100,336,54
818111,314,54
818120,319,54
818131,331,54
818141,303,54
818151,331,54
818161,319,54
818172,311,54
818182,339,54
818192,313,54
818203,333,54
818213,334,54
818224,312,54
818234,345,54
818244,320,54
818254,326,54
818264,343,54
818274,311,54
818285,347,54
818294,351,54
818305,340,54
818316,361,54
818326,329,54
818336,338,54
818346,337,54
818357,313,54
818366,342,54
818377,319,54
818388,325,54
818398,344,54
818408,301,54
818418,375,54
818429,615,52
818439,653,52
818449,651,52
818460,235,52
818470,273,52
818479,335,52
818491,291,52
818501,320,52
818510,302,52
818521,306,52
818532,328,52
818541,303,52
818551,332,52
818562,324,52
818573,317,52
818583,348,52
818593,321,52
818603,342,52
818614,347,52
818624,332,52
818633,367,52
818644,351,52
818655,361,52
818664,385,52
818675,366,52
818686,402,52
818696,403,52
818706,399,52
818716,431,52
818727,402,52
818736,406,52
818747,385,52
818757,331,52
818768,337,52
818778,294,52
818788,285,52
818798,299,52
818809,267,52
818818,290,52
818828,286,52
818839,275,52
818849,303,52
818860,274,52
818870,292,52
818880,298,52
818890,276,52
818900,308,52
818911,291,52
818922,292,52
818931,310,52
818941,279,52
818952,305,52
818963,300,52
818973,287,52
818982,315,52
818994,288,52
819004,303,52
819014,312,52
819024,288,52
819034,318,52
819045,297,52
819055,297,52
819065,319,52
819075,291,52
819085,312,52
819096,307,52
819107,294,52
819117,325,52
819127,295,52
819137,312,52
819147,323,52
819158,298,52
819167,330,52
819178,311,52
819189,306,52
819198,331,52
819209,301,52
819219,327,52
819229,323,52
819239,305,52
819250,333,52
819260,308,52
819271,321,52
819281,332,52
819290,306,52
819301,335,52
819311,319,52
819321,320,52
819332,341,52
819342,308,52
819352,339,52
819362,350,52
819373,333,52
819383,359,52
819394,328,52
819404,327,52
819414,338,52
819424,309,52
819434,338,52
819445,320,52
819455,315,52
819466,341,52
819476,302,52
819486,385,52
819497,649,53
819506,653,53
819517,613,53
819527,185,53
819537,280,53
819548,329,53
819557,293,53
819568,321,53
819579,310,53
819589,309,53
819599,333,53
819609,307,53
819619,333,53
819629,333,53
819640,316,53
819650,349,53
819661,328,53
819671,343,53
819681,357,53
819691,335,53
819702,368,53
819712,361,53
819722,365,53
819733,397,53
819742,378,53
819753,414,53
819763,421,53
819774,409,53
819784,441,53
819794,410,53
819805,398,53
819815,375,53
819825,317,53
819835,320,53
819846,290,53
819856,273,53
819865,292,53
819876,259,53
819886,281,53
819897,283,53
819907,264,53
819917,297,53
819927,274,53
819938,284,53
819948,301,53
819958,274,53
819968,303,53
819979,293,53
819989,288,53
819999,313,53
820010,284,53
820020,302,53
820030,305,53
820040,282,53
820050,311,53
820060,287,53
820070,295,53
820082,311,53
820091,282,53
820101,311,53
820112,301,53
820122,293,53
820133,318,53
820143,287,53
820153,308,53
820164,311,53
820174,293,53
820184,325,53
820195,303,53
820205,307,53
820214,322,53
820225,294,53
820236,324,53
820246,313,53
820256,305,53
820266,331,53
820276,299,53
820286,320,53
820296,325,53
820307,303,53
820317,335,53
820327,310,53
820338,314,53
820348,332,53
820358,306,53
820369,331,53
820379,320,53
820389,312,53
820400,338,53
820409,314,53
820420,330,53
820431,335,53
820441,312,53
820451,347,53
820462,323,53
820472,323,53
820482,354,53
820492,336,53
820503,357,53
820513,344,53
820523,328,53
820533,350,53
820543,319,53
820554,335,53
820564,339,53
820574,315,53
820585,347,53
820595,323,53
820605,317,53
820616,445,53
820625,652,52
820636,653,52
820646,565,52
820656,187,52
820666,324,52
820677,305,52
820688,306,52
820697,313,52
820708,294,52
820717,327,52
820728,307,52
820739,311,52
820749,334,52
820759,304,52
820770,332,52
820779,330,52
820790,321,52
820800,350,52
820810,329,52
820821,346,52
820831,359,52
820841,340,52
820852,378,52
820862,368,52
820872,377,52
820882,408,52
820892,387,52
820902,418,52
820912,416,52
820923,398,52
820934,410,52
820944,353,52
820954,339,52
820964,325,52
820974,282,52
820985,307,52
820994,283,52
821006,281,52
821016,304,52
821026,274,52
821036,301,52
821046,295,52
821057,281,52
821066,313,52
821078,287,52
821088,300,52
821098,310,52
821108,285,52
821118,317,52
821129,299,52
821139,298,52
821150,318,52
821160,288,52
821169,312,52
821179,309,52
821190,292,52
821200,321,52
821211,296,52
821221,306,52
821231,318,52
821241,292,52
821251,322,52
821262,305,52
821272,302,52
821282,327,52
821293,296,52
821303,320,52
821313,319,52
821324,300,52
821334,331,52
821344,305,52
821355,315,52
821364,329,52
821375,302,52
821385,330,52
821395,314,52
821406,313,52
821416,338,52
821426,307,52
821436,330,52
821447,325,52
821456,307,52
821467,338,52
821478,313,52
821488,325,52
821498,337,52
821509,309,52
821519,340,52
821529,323,52
821540,318,52
821550,344,52
821560,317,52
821570,338,52
821580,336,52
821591,316,52
821601,345,52
821611,325,52
821622,333,52
821631,346,52
821642,331,52
821651,366,52
821663,343,52
821673,337,52
821683,353,52
821694,317,52
821704,335,52
821714,335,52
821724,313,52
821734,346,52
821745,322,52
821755,325,52
821765,346,52
821776,489,52
821786,653,52
821796,653,52
821806,387,52
821816,237,52
821826,305,52
821836,316,52
821847,311,52
821858,292,52
821868,324,52
821878,304,52
821888,314,52
821899,331,52
821908,306,52
821919,337,52
821930,327,52
821940,322,52
821950,349,52
821961,324,52
821970,350,52
821981,356,52
821991,341,52
822001,378,52
822012,362,52
822022,376,52
822032,403,52
822042,384,52
822053,419,52
822062,415,52
822073,407,52
822084,424,52
822093,372,52
822104,363,52
822114,340,52
822124,296,52
822134,314,52
822144,285,52
822154,283,52
822166,301,52
822176,271,52
822186,297,52
822196,291,52
822207,281,52
822217,309,52
822227,279,52
822237,300,52
822247,306,52
822258,284,52
822268,315,52
822279,293,52
822289,297,52
822299,316,52
822309,287,52
822319,315,52
822330,305,52
822339,291,52
822350,319,52
822360,291,52
822371,308,52
822381,315,52
822392,289,52
822402,319,52
822412,299,52
822422,303,52
822432,324,52
822443,292,52
822453,321,52
822463,315,52
822473,302,52
822483,332,52
822494,301,52
822504,317,52
822515,329,52
822525,300,52
822535,332,52
822546,311,52
822555,311,52
822566,333,52
822576,302,52
822587,329,52
822596,325,52
822607,312,52
822617,341,52
822628,310,52
822638,326,52
822648,336,52
822658,312,52
822668,338,52
822679,327,52
822689,339,52
822698,356,52
822710,325,52
822720,345,52
822730,331,52
822740,313,52
822750,339,52
822761,312,52
822771,325,52
822782,336,52
822792,312,52
822802,328,52
822812,362,52
822822,620,53
822832,653,53
822842,629,53
822854,199,53
822864,270,53
822873,298,53
822884,320,53
822894,292,53
822905,304,53
822914,322,53
822925,296,53
822936,330,53
822946,316,53
822956,316,53
822965,343,53
822977,316,53
822987,341,53
822996,342,53
823007,331,53
823018,364,53
823028,345,53
823038,359,53
823048,380,53
823058,364,53
823069,405,53
823079,403,53
823089,408,53
823100,442,53
823109,416,53
823120,434,53
823131,414,53
823141,361,53
823151,354,53
823161,301,53
823172,290,53
823182,294,53
823191,259,53
823203,289,53
823213,275,53
823223,269,53
823233,293,53
823243,267,53
823253,286,53
823264,287,53
823274,271,53
823284,305,53
823294,280,53
823305,291,53
823316,304,53
823325,278,53
823336,306,53
823346,296,53
823356,286,53
823366,310,53
823376,279,53
823387,299,53
823397,300,53
823407,280,53
823418,312,53
823428,288,53
823438,293,53
823449,310,53
823459,282,53
823470,310,53
823480,299,53
823490,291,53
823500,318,53
823510,292,53
823521,311,53
823531,314,53
823541,292,53
823551,325,53
823562,299,53
823572,305,53
823582,325,53
823592,296,53
823602,326,53
823613,316,53
823623,307,53
823633,332,53
823643,301,53
823654,328,53
823664,344,53
823675,313,53
823685,344,53
823694,316,53
823706,314,53
823716,332,53
823726,302,53
823736,329,53
823747,318,53
823757,308,53
823766,332,53
823777,291,53
823788,406,53
823798,652,53
823808,653,53
823817,540,53
823828,179,53
823839,287,53
823849,322,53
823859,283,53
823870,312,53
823880,307,53
823890,294,53
823901,327,53
823911,303,53
823921,321,53
823931,330,53
823941,309,53
823952,341,53
823962,326,53
823972,330,53
823982,356,53
823993,331,53
824003,361,53
824013,362,53
824024,354,53
824033,392,53
824044,374,53
824055,398,53
824064,413,53
824074,398,53
824084,429,53
824095,406,53
824105,381,53
824116,371,53
824126,312,53
824137,313,53
824146,294,53
824157,271,53
824168,300,53
824177,273,53
824187,285,53
824197,294,53
824209,271,53
824219,301,53
824228,284,53
824239,283,53
824249,311,53
824260,282,53
824270,307,53
824280,305,53
824290,290,53
824300,320,53
824311,291,53
824321,303,53
824331,314,53
824342,286,53
824352,315,53
824362,296,53
824373,291,53
824382,316,53
824393,284,53
824404,308,53
824414,307,53
824424,290,53
824434,320,53
824444,295,53
824454,306,53
824465,316,53
824476,292,53
824486,323,53
824496,307,53
824506,305,53
824516,328,53
824527,300,53
824537,323,53
824547,323,53
824558,305,53
824568,336,53
824578,312,53
824589,321,53
824598,337,53
824609,309,53
824619,340,53
824630,324,53
824640,318,53
824650,345,53
824660,311,53
824670,333,53
824681,333,53
824691,314,53
824700,345,53
824712,323,53
824722,329,53
824731,342,53
824741,315,53
824752,344,53
824763,331,53
824773,321,53
824783,348,53
824793,320,53
824803,343,53
824814,340,53
824824,321,53
824834,366,53
824845,349,53
824855,347,53
824865,360,53
824876,327,53
824885,350,53
824897,332,53
824907,322,53
824916,347,53
824927,318,53
824937,336,53
824948,336,53
824958,313,53
824968,484,53
824978,653,53
824989,653,53
824998,501,53
825009,192,53
825019,332,53
825030,317,53
825040,294,53
825050,324,53
825061,299,53
825071,321,53
825081,327,53
825091,306,53
825101,338,53
825112,318,53
825122,324,53
825132,345,53
825143,318,53
825153,350,53
825163,343,53
825173,335,53
825183,369,53
825193,345,53
825204,368,53
825214,381,53
825225,367,53
825235,409,53
825245,395,53
825255,402,53
825266,425,53
825276,393,53
825286,400,53
825297,363,53
825307,322,53
825317,332,53
825327,288,53
825337,296,53
825348,296,53
825358,273,53
825369,303,53
825379,281,53
825388,286,53
825399,307,53
825409,279,53
825420,306,53
825430,296,53
825440,284,53
825450,316,53
825461,289,53
825471,302,53
825481,307,53
825492,285,53
825501,314,53
825512,294,53
825522,292,53
825533,315,53
825543,287,53
825553,310,53
825564,304,53
825574,288,53
825584,316,53
825595,288,53
825604,302,53
825615,314,53
825625,288,53
825635,321,53
825646,303,53
825656,301,53
825666,327,53
825676,295,53
825687,319,53
825697,316,53
825707,301,53
825718,332,53
825727,304,53
825738,316,53
825748,330,53
825758,304,53
825769,333,53
825779,313,53
825789,313,53
825799,332,53
825810,306,53
825820,330,53
825831,325,53
825841,310,53
825851,341,53
825861,315,53
825872,326,53
825882,336,53
825892,312,53
825902,343,53
825912,324,53
825923,322,53
825933,344,53
825943,314,53
825954,338,53
825963,335,53
825974,321,53
825984,348,53
825995,329,53
826005,350,53
826015,363,53
826025,330,53
826036,358,53
826046,333,53
826056,324,53
826066,345,53
826077,313,53
826087,339,53
826097,337,53
826108,316,53
826118,334,53
826128,345,53
826139,605,54
826149,654,54
826159,652,54
826169,266,54
826179,256,54
826190,314,54
826199,326,54
826210,297,54
826220,320,54
826230,323,54
826241,307,54
826251,336,54
826261,313,54
826272,325,54
826282,343,54
826292,316,54
826303,350,54
826312,340,54
826323,335,54
826333,365,54
826344,340,54
826354,364,54
826364,371,54
826374,360,54
826384,404,54
826394,389,54
826405,407,54
826415,432,54
826425,405,54
826435,432,54
826446,408,54
826456,374,54
826466,367,54
826477,310,54
826487,309,54
826498,297,54
826508,270,54
826518,298,54
826529,277,54
826539,284,54
826549,300,54
826559,271,54
826569,300,54
826580,290,54
826590,283,54
826600,311,54
826611,281,54
826620,301,54
826631,302,54
826641,282,54
826652,309,54
826662,288,54
826672,295,54
826682,310,54
826692,281,54
826703,311,54
826713,301,54
826723,290,54
826733,317,54
826744,289,54
826754,304,54
826764,309,54
826775,288,54
826785,315,54
826796,295,54
826805,299,54
826816,319,54
826826,289,54
826836,316,54
826846,308,54
826857,297,54
826867,326,54
826877,298,54
826887,314,54
826898,321,54
826908,297,54
826919,330,54
826929,310,54
826939,311,54
826949,331,54
826960,303,54
826970,328,54
826980,325,54
826990,329,54
827001,356,54
827011,322,54
827021,331,54
827031,331,54
827041,301,54
827052,330,54
827063,312,54
827073,313,54
827083,336,54
827093,305,54
827103,319,54
827113,346,54
827124,568,54
827134,653,54
827144,650,54
827155,219,54
827165,268,54
827175,298,54
827185,320,54
827196,302,54
827206,304,54
827216,327,54
827226,299,54
827236,327,54
827247,325,54
827257,312,54
827268,343,54
827278,321,54
827288,336,54
827298,350,54
827309,329,54
827319,363,54
827328,349,54
827339,351,54
827350,384,54
827360,362,54
827370,398,54
827381,405,54
827391,402,54
827401,441,54
827411,417,54
827422,422,54
827431,414,54
827442,356,54
827452,355,54
827463,309,54
827473,286,54
827483,300,54
827493,265,54
827503,288,54
827513,281,54
827524,264,54
827535,297,54
827544,272,54
827555,281,54
827566,294,54
827575,270,54
827586,302,54
827596,286,54
827606,282,54
827616,308,54
827627,281,54
827637,304,54
827647,301,54
827658,282,54
827668,312,54
827678,286,54
827689,294,54
827698,307,54
827708,279,54
827720,308,54
827730,296,54
827739,287,54
827750,315,54
827760,286,54
827771,305,54
827780,307,54
827791,289,54
827802,321,54
827812,295,54
827822,305,54
827832,320,54
827843,292,54
827853,321,54
827863,309,54
827873,305,54
827883,328,54
827894,298,54
827904,319,54
827914,321,54
827924,301,54
827935,333,54
827944,309,54
827956,316,54
827966,332,54
827976,302,54
827986,331,54
827996,317,54
828006,309,54
828017,338,54
828028,308,54
828037,329,54
828047,332,54
828058,309,54
828068,340,54
828079,318,54
828089,327,54
828099,343,54
828110,310,54
828119,350,54
828130,350,54
828140,330,54
828150,359,54
828161,324,54
828171,332,54
828181,336,54
828191,310,54
828202,341,54
828212,318,54
828222,323,54
828232,341,54
828243,301,54
828253,451,54
828264,653,54
828274,653,54
828284,536,54
828294,189,54
828304,317,54
828315,326,54
828324,287,54
828335,322,54
828346,302,54
828356,306,54
828365,326,54
828377,300,54
828386,329,54
828397,323,54
828407,312,54
828418,344,54
828428,319,54
828438,334,54
828448,347,54
828458,327,54
828469,361,54
828479,348,54
828489,358,54
828500,386,54
828510,366,54
828520,400,54
828530,401,54
828540,394,54
828551,429,54
828561,396,54
828571,393,54
828582,375,54
828592,324,54
828602,332,54
828612,298,54
828623,286,54
828633,304,54
828643,274,54
828654,297,54
828664,291,54
828674,277,54
828684,307,54
828695,282,54
828705,295,54
828715,306,54
828724,281,54
828736,312,54
828746,294,54
828756,295,54
828767,318,54
828777,286,54
828787,311,54
828797,305,54
828808,286,54
828818,318,54
828827,293,54
828838,303,54
828848,313,54
828858,288,54
828869,318,54
828880,301,54
828889,299,54
828899,324,54
828910,294,54
828921,317,54
828931,311,54
828940,297,54
828951,329,54
828961,301,54
828972,311,54
828982,322,54
828992,298,54
829003,329,54
829013,311,54
829023,306,54
829033,332,54
829043,301,54
829054,326,54
829064,325,54
829074,305,54
829085,334,54
829095,310,54
829105,319,54
829115,333,54
829125,305,54
829136,335,54
829146,320,54
829156,315,54
829167,340,54
829177,312,54
829187,331,54
829198,331,54
829207,314,54
829218,343,54
829228,321,54
829238,330,54
829249,342,54
829259,315,54
829270,344,54
829280,330,54
829290,323,54
829300,352,54
829311,317,54
829321,343,54
829331,357,54
829341,338,54
829352,363,54
829361,337,54
829372,335,54
829382,346,54
829393,315,54
829403,341,54
829413,330,54
829423,319,54
829434,347,54
829444,310,54
829454,346,54
829465,544,54
829475,653,54
829485,653,54
829495,347,54
829506,232,54
829516,341,54
829526,294,54
829537,316,54
829547,307,54
829557,300,54
829567,329,54
829577,304,54
829588,324,54
829598,330,54
829608,309,54
829619,343,54
829629,325,54
829639,334,54
829649,353,54
829659,327,54
829669,358,54
829680,354,54
829691,350,54
829701,385,54
829711,364,54
829721,390,54
829731,403,54
829742,389,54
829752,424,54
829762,400,54
829773,399,54
829782,402,54
829793,346,54
829803,346,54
829813,317,54
829824,289,54
829834,309,54
829844,277,54
829855,293,54
829864,299,54
829875,278,54
829885,308,54
829895,290,54
829906,292,54
829916,313,54
829926,283,54
829937,310,54
829947,302,54
829957,290,54
829968,319,54
829978,287,54
829988,305,54
829998,311,54
830009,283,54
830019,314,54
830029,297,54
830040,297,54
830049,319,54
830059,290,54
830070,315,54
830080,306,54
830091,291,54
830101,323,54
830111,295,54
830122,308,54
830132,315,54
830142,290,54
830152,321,54
830163,303,54
830173,303,54
830183,326,54
830193,297,54
830204,320,54
830214,318,54
830224,305,54
830235,334,54
830245,304,54
830255,320,54
830265,329,54
830275,305,54
830286,335,54
830296,316,54
830306,315,54
830317,339,54
830327,310,54
830337,331,54
830347,327,54
830358,313,54
830368,343,54
830378,319,54
830389,328,54
830398,338,54
830409,312,54
830419,343,54
830429,328,54
830440,318,54
830450,345,54
830460,328,54
830471,360,54
830481,349,54
830491,330,54
830501,348,54
830511,320,54
830521,328,54
830532,339,54
830542,310,54
830552,341,54
830563,328,54
830573,314,54
830584,345,54
830594,500,54
830604,653,54
830614,653,54
830624,336,54
830634,236,54
830645,306,54
830655,312,54
830666,320,54
830676,296,54
830686,329,54
830697,316,54
830706,315,54
830717,339,54
830727,315,54
830737,338,54
830748,338,54
830758,322,54
830768,353,54
830779,332,54
830788,345,54
830798,365,54
830809,344,54
830819,382,54
830830,376,54
830840,379,54
830850,414,54
830860,398,54
830871,427,54
830881,435,54
830892,417,54
830902,435,54
830912,387,54
830922,359,54
830933,345,54
830943,292,54
830953,304,54
830963,284,54
830974,272,54
830984,298,54
830994,268,54
831004,287,54
831015,288,54
831024,267,54
831035,296,54
831046,277,54
831056,282,54
831066,300,54
831076,273,54
831086,300,54
831096,291,54
831107,281,54
831117,308,54
831127,279,54
831137,298,54
831147,301,54
831158,281,54
831168,312,54
831179,288,54
831189,290,54
831199,307,54
831209,278,54
831220,307,54
831230,297,54
831241,286,54
831251,316,54
831261,286,54
831271,304,54
831281,309,54
831292,286,54
831302,316,54
831312,295,54
831322,298,54
831332,319,54
831342,289,54
831353,315,54
831363,310,54
831373,299,54
831383,327,54
831394,300,54
831404,316,54
831414,322,54
831425,299,54
831435,333,54
831446,314,54
831456,314,54
831467,333,54
831477,305,54
831487,350,54
831497,341,54
831507,320,54
831517,347,54
831528,309,54
831539,322,54
831549,331,54
831559,302,54
831569,333,54
831579,313,54
831589,314,54
831599,328,54
831609,307,54
831620,521,54
831630,653,54
831641,653,54
831651,350,54
831661,208,54
831672,314,54
831681,313,54
831692,284,54
831703,320,54
831713,303,54
831723,302,54
831733,330,54
831743,303,54
831754,327,54
831763,327,54
831774,314,54
831784,348,54
831794,324,54
831805,341,54
831815,354,54
831826,334,54
831836,369,54
831846,355,54
831856,360,54
831867,393,54
831876,376,54
831887,409,54
831897,413,54
831907,399,54
831918,432,54
831928,398,54
831939,383,54
831949,363,54
831959,310,54
831969,319,54
831979,290,54
831990,281,54
832000,301,54
832010,269,54
832020,293,54
832031,291,54
832040,274,54
832052,307,54
832062,283,54
832072,289,54
832082,304,54
832092,280,54
832103,311,54
832113,298,54
832124,290,54
832133,317,54
832143,285,54
832154,306,54
832164,304,54
832174,285,54
832185,315,54
832195,289,54
832206,296,54
832216,308,54
832225,279,54
832236,312,54
832247,298,54
832256,291,54
832267,318,54
832277,288,54
832288,307,54
832298,309,54
832308,291,54
832318,324,54
832329,300,54
832339,308,54
832349,325,54
832359,299,54
832370,328,54
832380,315,54
832390,309,54
832401,335,54
832410,303,54
832421,325,54
832431,328,54
832441,306,54
832451,337,54
832461,313,54
832472,318,54
832482,333,54
832492,304,54
832503,334,54
832513,324,54
832523,314,54
832534,344,54
832543,316,54
832555,332,54
832564,336,54
832575,313,54
832585,342,54
832596,320,54
832606,326,54
832616,341,54
832626,315,54
832636,346,54
832647,331,54
832657,316,54
832667,354,54
832678,340,54
832688,350,54
832698,354,54
832709,327,54
832719,349,54
832729,323,54
832739,322,54
832750,344,54
832759,314,54
832770,341,54
832781,332,54
832791,310,54
832801,417,54
832811,650,54
832821,653,54
832831,637,54
832842,195,54
832852,306,54
832862,316,54
832873,300,54
832883,322,54
832893,292,54
832903,320,54
832913,317,54
832924,306,54
832934,336,54
832945,312,54
832955,328,54
832965,339,54
832975,317,54
832985,351,54
832996,334,54
833005,341,54
833017,366,54
833026,339,54
833037,373,54
833047,375,54
833058,372,54
833068,408,54
833078,388,54
833089,411,54
833099,423,54
833109,395,54
833119,415,54
833129,372,54
833139,343,54
833149,342,54
833160,293,54
833170,305,54
833180,294,54
833191,272,54
833201,303,54
833212,275,54
833221,287,54
833232,298,54
833242,275,54
833252,310,54
833263,293,54
833273,288,54
833283,310,54
833294,282,54
833303,304,54
833314,302,54
833324,284,54
833335,314,54
833345,289,54
833355,301,54
833365,314,54
833375,287,54
833386,316,54
833396,302,54
833406,295,54
833417,317,54
833427,291,54
833437,315,54
833447,312,54
833458,293,54
833468,326,54
833479,300,54
833489,312,54
833499,322,54
833509,296,54
833520,326,54
833530,310,54
833540,306,54
833550,330,54
833560,299,54
833570,322,54
833581,324,54
833591,303,54
833602,334,54
833612,309,54
833622,320,54
833632,334,54
833642,303,54
833653,334,54
833663,318,54
833673,312,54
833684,337,54
833694,308,54
833704,331,54
833714,333,54
833725,314,54
833735,347,54
833745,322,54
833756,327,54
833766,340,54
833776,312,54
833786,345,54
833796,328,54
833807,322,54
833817,360,54
833827,340,54
833837,350,54
833847,352,54
833858,325,54
833869,348,54
833879,323,54
833889,329,54
833899,338,54
833909,313,54
833920,345,54
833930,325,54
833940,316,54
833951,505,53
833961,653,53
833971,653,53
833981,410,53
833992,195,53
834002,331,53
834012,310,53
834023,305,53
834032,326,53
834043,301,53
834053,329,53
834064,320,53
834073,311,53
834084,342,53
834094,318,53
834104,337,53
834114,345,53
834125,327,53
834135,360,53
834145,339,53
834156,347,53
834166,373,53
834177,351,53
834187,385,53
834197,388,53
834207,387,53
834218,426,53
834228,406,53
834238,429,53
834247,437,53
834259,408,53
834269,416,53
834279,361,53
834290,332,53
834299,323,53
834310,280,53
834319,297,53
834330,284,53
834341,272,53
834350,298,53
834361,271,53
834371,286,53
834382,296,53
834392,272,53
834402,304,53
834413,286,53
834422,286,53
834432,308,53
834444,280,53
834454,307,53
834463,300,53
834474,287,53
834484,316,53
834495,288,53
834505,302,53
834515,307,53
834526,279,53
834535,312,53
834546,292,53
834556,292,53
834567,313,53
834576,285,53
834587,308,53
834597,303,53
834607,290,53
834618,321,53
834628,292,53
834639,307,53
834649,318,53
834659,292,53
834668,322,53
834679,304,53
834690,305,53
834699,327,53
834710,299,53
834720,321,53
834731,319,53
834741,302,53
834751,332,53
834762,305,53
834772,315,53
834782,329,53
834793,303,53
834803,330,53
834813,313,53
834824,311,53
834834,334,53
834844,303,53
834854,326,53
834864,324,53
834874,308,53
834884,340,53
834895,316,53
834906,324,53
834915,345,53
834926,332,53
834936,355,53
834946,338,53
834957,328,53
834967,343,53
834977,311,53
834987,329,53
834998,329,53
835008,312,53
835018,342,53
835028,316,53
835038,312,53
835049,383,53
835059,624,53
835069,653,53
835080,648,53
835090,208,53
835100,290,53
835110,307,53
835120,309,53
835131,307,53
835141,289,53
835152,323,53
835162,300,53
835172,314,53
835183,331,53
835193,305,53
835203,335,53
835213,325,53
835223,323,53
835234,350,53
835244,326,53
835254,352,53
835265,354,53
835274,341,53
835285,377,53
835296,360,53
835305,377,53
835316,405,53
835326,384,53
835337,421,53
835347,412,53
835357,401,53
835367,416,53
835377,363,53
835387,354,53
835398,330,53
835408,291,53
835419,309,53
835429,278,53
835439,283,53
835449,297,53
835460,268,53
835470,298,53
835480,285,53
835490,277,53
835500,306,53
835511,276,53
835521,298,53
835532,301,53
835542,281,53
835552,311,53
835562,289,53
835573,296,53
835582,310,53
835593,280,53
835603,308,53
835614,299,53
835624,286,53
835634,314,53
835644,284,53
835655,302,53
835665,308,53
835675,286,53
835686,316,53
835696,296,53
835706,299,53
835716,317,53
835726,289,53
835736,316,53
835746,308,53
835757,293,53
835768,322,53
835778,297,53
835788,313,53
835798,321,53
835808,297,53
835819,327,53
835829,307,53
835840,311,53
835850,331,53
835860,303,53
835870,329,53
835880,323,53
835891,310,53
835901,337,53
835911,309,53
835922,322,53
835932,330,53
835942,308,53
835953,337,53
835963,317,53
835973,320,53
835983,340,53
835993,312,53
836003,338,53
836013,332,53
836023,317,53
836034,344,53
836044,315,53
836055,331,53
836066,338,53
836075,314,53
836086,356,53
836095,344,53
836106,336,53
836116,355,53
836127,320,53
836137,338,53
836148,331,53
836158,317,53
836168,346,53
836178,317,53
836189,333,53
836199,335,53
836209,307,53
836220,488,53
836230,653,53
836240,653,53
836250,474,53
836260,193,53
836270,326,53
836281,316,53
836291,289,53
836301,324,53
836312,294,53
836322,309,53
836332,324,53
836342,300,53
836353,333,53
836363,319,53
836373,318,53
836384,343,53
836394,317,53
836404,344,53
836415,344,53
836425,330,53
836435,364,53
836444,343,53
836456,365,53
836466,382,53
836476,365,53
836486,407,53
836496,399,53
836507,399,53
836517,428,53
836527,397,53
836537,403,53
836547,371,53
836557,325,53
836569,335,53
836579,292,53
836588,293,53
836599,300,53
836609,271,53
836620,297,53
836630,284,53
836640,281,53
836650,306,53
836661,275,53
836671,299,53
836682,301,53
836691,281,53
836702,314,53
836712,288,53
836722,297,53
836732,311,53
836743,284,53
836753,310,53
836763,297,53
836773,292,53
836784,317,53
836794,286,53
836805,305,53
836815,305,53
836824,287,53
836835,316,53
836846,291,53
836856,300,53
836866,316,53
836876,287,53
836887,316,53
836896,303,53
836907,296,53
836918,323,53
836928,294,53
836938,316,53
836948,317,53
836958,297,53
836969,330,53
836979,309,53
836989,315,53
836999,332,53
837009,301,53
837020,326,53
837030,317,53
837040,308,53
837051,336,53
837060,307,53
837072,326,53
837082,325,53
837092,306,53
837102,337,53
837112,315,53
837122,321,53
837133,337,53
837143,307,53
837154,337,53
837163,330,53
837173,319,53
837184,346,53
837194,318,53
837204,345,53
837215,356,53
837226,328,53
837236,358,53
837245,328,53
837256,328,53
837267,341,53
837276,311,53
837287,338,53
837297,326,53
837307,317,53
837318,336,53
837327,321,53
837339,535,53
837348,653,53
837359,653,53
837369,325,53
837379,222,53
837390,314,53
837400,323,53
837410,289,53
837420,318,53
837430,310,53
837441,304,53
837451,335,53
837461,310,53
837472,327,53
837482,336,53
837492,316,53
837502,351,53
837512,333,53
837523,337,53
837533,361,53
837543,337,53
837554,367,53
837564,369,53
837575,363,53
837585,399,53
837595,380,53
837605,407,53
837615,424,53
837626,403,53
837636,436,53
837646,410,53
837656,387,53
837667,374,53
837676,314,53
837687,316,53
837697,294,53
837708,273,53
837718,296,53
837728,267,53
837738,282,53
837748,291,53
837759,266,53
837769,299,53
837779,281,53
837789,282,53
837799,306,53
837810,275,53
837820,300,53
837830,297,53
837841,284,53
837851,315,53
837862,285,53
837872,296,53
837882,306,53
837893,281,53
837902,309,53
837912,293,53
837923,290,53
837934,312,53
837944,283,53
837954,307,53
837964,303,53
837975,288,53
837985,321,53
837995,296,53
838006,308,53
838015,320,53
838026,295,53
838036,325,53
838046,309,53
838057,306,53
838067,330,53
838077,299,53
838087,322,53
838098,322,53
838108,303,53
838118,332,53
838128,309,53
838139,319,53
838148,330,53
838160,304,53
838170,335,53
838179,319,53
838190,315,53
838200,339,53
838211,309,53
838221,329,53
838231,330,53
838242,312,53
838252,343,53
838262,318,53
838272,325,53
838283,337,53
838293,310,53
838303,349,53
838313,343,53
838324,334,53
838333,359,53
838345,323,53
838355,336,53
838365,334,53
838375,312,53
838385,342,53
838396,315,53
838406,324,53
838415,337,53
838426,301,53
838437,438,53
838447,652,53
838457,653,53
838467,556,53
838478,183,53
838488,312,53
838497,321,53
838509,287,53
838518,321,53
838529,300,53
838539,307,53
838549,326,53
838560,300,53
838570,332,53
838580,323,53
838591,318,53
838601,345,53
838611,319,53
838622,341,53
838632,350,53
838642,332,53
838652,366,53
838662,348,53
838672,360,53
838683,384,53
838693,365,53
838703,402,53
838714,402,53
838724,399,53
838734,427,53
838745,395,53
838755,401,53
838765,380,53
838776,328,53
838785,336,53
838796,296,53
838806,287,53
838817,300,53
838827,270,53
838837,295,53
838847,287,53
838857,276,53
838868,303,53
838878,275,53
838888,292,53
838899,299,53
838909,277,53
838919,309,53
838929,287,53
838939,291,53
838950,309,53
838960,278,53
838971,306,53
838981,296,53
838991,285,53
839001,314,53
839011,286,53
839021,304,53
839032,308,53
839042,283,53
839052,312,53
839063,294,53
839073,297,53
839083,313,53
839094,285,53
839104,311,53
839114,307,53
839125,293,53
839135,322,53
839145,294,53
839155,309,53
839166,317,53
839176,296,53
839186,329,53
839196,310,53
839206,313,53
839216,334,53
839227,299,53
839237,324,53
839248,320,53
839258,306,53
839268,333,53
839278,305,53
839289,320,53
839299,327,53
839308,302,53
839320,334,53
839330,316,53
839340,315,53
839350,336,53
839360,307,53
839371,334,53
839381,329,53
839391,315,53
839402,341,53
839411,312,53
839422,330,53
839432,352,53
839443,327,53
839452,354,53
839462,333,53
839473,322,53
839483,339,53
839494,308,53
839504,334,53
839514,330,53
839524,312,53
839535,345,53
839545,306,53
839556,353,53
839566,614,53
839576,654,53
839587,652,53
839597,248,53
839607,245,53
839617,333,53
839627,292,53
839638,313,53
839648,313,53
839658,300,53
839669,331,53
839678,312,53
839689,321,53
839699,334,53
839709,308,53
839720,343,53
839730,330,53
839741,331,53
839751,361,53
839761,333,53
839771,357,53
839781,361,53
839792,352,53
839802,393,53
839812,380,53
839822,396,53
839832,418,53
839843,400,53
839854,435,53
839864,423,53
839874,407,53
839884,408,53
839894,346,53
839904,336,53
839915,312,53
839925,277,53
839936,301,53
839946,273,53
839956,280,53
839966,293,53
839976,266,53
839986,296,53
839997,285,53
840007,277,53
840018,307,53
840027,279,53
840038,297,53
840048,300,53
840058,282,53
840068,313,53
840079,290,53
840089,295,53
840099,310,53
840109,284,53
840120,309,53
840131,294,53
840141,288,53
840151,313,53
840161,284,53
840171,303,53
840182,306,53
840191,286,53
840203,318,53
840212,293,53
840223,298,53
840233,317,53
840243,289,53
840254,318,53
840263,310,53
840274,297,53
840285,323,53
840295,295,53
840305,311,53
840316,316,53
840325,296,53
840335,329,53
840346,306,53
840356,312,53
840366,330,53
840376,303,53
840387,328,53
840397,319,53
840408,311,53
840418,340,53
840428,308,53
840438,325,53
840449,343,53
840459,328,53
840469,353,53
840480,332,53
840490,326,53
840500,337,53
840510,304,53
840520,334,53
840531,324,53
840540,312,53
840551,342,53
840562,310,53
840572,323,53
840582,479,53
840592,653,53
840602,653,53
840612,421,53
840623,198,53
840634,327,53
840643,295,53
840654,313,53
840664,307,53
840674,298,53
840685,329,53
840695,306,53
840705,320,53
840716,331,53
840726,308,53
840735,343,53
840746,327,53
840756,330,53
840767,353,53
840777,331,53
840787,358,53
840798,355,53
840808,346,53
840818,382,53
840828,366,53
840838,391,53
840849,410,53
840859,394,53
840870,430,53
840880,415,53
840889,409,53
840901,409,53
840911,349,53
840921,345,53
840931,314,53
840941,285,53
840952,306,53
840962,275,53
840972,285,53
840982,294,53
840993,268,53
841003,301,53
841013,281,53
841024,282,53
841034,307,53
841044,280,53
841054,305,53
841064,300,53
841075,286,53
841085,316,53
841095,290,53
841105,302,53
841115,312,53
841126,287,53
841136,315,53
841146,297,53
841157,293,53
841167,316,53
841177,285,53
841188,308,53
841198,305,53
841209,289,53
841219,319,53
841229,293,53
841239,304,53
841249,317,53
841260,290,53
841269,320,53
841280,307,53
841291,303,53
841300,326,53
841311,297,53
841322,322,53
841331,323,53
841342,303,53
841352,332,53
841362,308,53
841373,316,53
841382,330,53
841393,304,53
841403,334,53
841413,319,53
841423,315,53
841433,340,53
841444,311,53
841454,333,53
841465,334,53
841475,314,53
841485,344,53
841495,320,53
841506,329,53
841516,343,53
841526,314,53
841536,338,53
841547,332,53
841557,335,53
841568,358,53
841578,328,53
841588,348,53
841598,342,53
841608,319,53
841618,346,53
841629,321,53
841639,326,53
841650,342,53
841660,317,53
841670,333,53
841681,354,53
841691,578,54
841701,653,54
841711,652,54
841722,276,54
841732,267,54
841742,314,54
841753,326,54
841762,300,54
841773,310,54
841783,326,54
841794,300,54
841803,330,54
841814,322,54
841824,313,54
841834,343,54
841845,316,54
841855,336,54
841865,342,54
841875,324,54
841885,357,54
841896,341,54
841906,352,54
841917,373,54
841926,350,54
841936,388,54
841948,387,54
841958,387,54
841968,420,54
841978,397,54
841989,416,54
841999,413,54
842009,369,54
842019,373,54
842030,325,54
842040,308,54
842050,312,54
842061,275,54
842071,298,54
842081,287,54
842091,275,54
842101,307,54
842112,277,54
842122,295,54
842132,300,54
842143,278,54
842153,311,54
842163,293,54
842174,294,54
842183,314,54
842194,285,54
842204,312,54
842215,304,54
842224,291,54
842235,320,54
842245,291,54
842255,305,54
842266,308,54
842276,284,54
842286,317,54
842296,297,54
842306,299,54
842317,320,54
842327,294,54
842338,317,54
842347,309,54
842358,295,54
842369,323,54
842379,295,54
842389,312,54
842399,320,54
842409,297,54
842420,327,54
842430,309,54
842440,308,54
842451,330,54
842461,300,54
842470,327,54
842480,318,54
842491,304,54
842502,337,54
842512,311,54
842522,325,54
842533,336,54
842542,310,54
842552,340,54
842563,321,54
842574,319,54
842584,343,54
842594,312,54
842604,338,54
842614,331,54
842624,315,54
842636,346,54
842645,319,54
842655,331,54
842666,340,54
842676,315,54
842686,344,54
842697,328,54
842707,325,54
842717,347,54
842727,317,54
842738,351,54
842748,355,54
842758,334,54
842769,363,54
842779,329,54
842789,333,54
842800,341,54
842810,314,54
842820,344,54
842830,327,54
842840,323,54
842851,345,54
842861,302,54
842871,424,54
842882,652,53
842892,653,53
842902,595,53
842913,193,53
842923,301,53
842933,330,53
842943,287,53
842953,319,53
842964,307,53
842974,303,53
842985,331,53
842995,301,53
843005,325,53
843015,325,53
843025,310,53
843036,348,53
843046,324,53
843056,335,53
843067,354,53
843076,329,53
843086,362,53
843098,355,53
843107,355,53
843118,389,53
843127,370,53
843138,398,53
843149,408,53
843159,394,53
843169,427,53
843179,406,53
843190,401,53
843200,392,53
843210,336,53
843221,337,53
843231,304,53
843240,285,53
843251,304,53
843261,273,53
843272,292,53
843282,294,53
843292,271,53
843303,306,53
843313,284,53
843322,289,53
843333,303,53
843344,276,53
843353,305,53
843364,292,53
843374,284,53
843384,313,53
843395,286,53
843405,305,53
843415,307,53
843426,284,53
843436,315,53
843446,290,53
843456,296,53
843467,311,53
843477,283,53
843487,311,53
843497,303,53
843507,294,53
843518,321,53
843528,290,53
843538,311,53
843549,315,53
843559,294,53
843569,325,53
843579,303,53
843589,308,53
843600,325,53
843610,295,53
843620,323,53
843631,313,53
843640,304,53
843651,332,53
843661,304,53
843671,322,53
843683,329,53
843693,304,53
843703,333,53
843712,313,53
843723,317,53
843734,337,53
843743,306,53
843754,332,53
843765,323,53
843775,311,53
843785,337,53
843795,312,53
843806,329,53
843816,334,53
843826,311,53
843836,341,53
843847,322,53
843856,325,53
843867,342,53
843877,313,53
843888,335,53
843897,335,53
843908,332,53
843919,362,53
843928,328,53
843939,344,53
843949,344,53
843960,317,53
843970,343,53
843980,324,53
843990,327,53
844001,347,53
844011,317,53
844021,335,53
844031,336,53
844041,497,53
844052,653,53
844062,653,53
844072,395,53
844082,230,53
844092,308,53
844103,328,53
844113,304,53
844124,307,53
844134,330,53
844144,303,53
844155,331,53
844165,328,53
844175,314,53
844186,343,53
844195,318,53
844205,334,53
844216,349,53
844226,331,53
844236,363,53
844247,347,53
844257,351,53
844267,380,53
844277,356,53
844288,392,53
844298,398,53
844309,395,53
844319,432,53
844329,413,53
844340,425,53
844350,432,53
844359,390,53
844371,390,53
844380,343,53
844390,316,53
844401,319,53
844411,274,53
844422,295,53
844432,291,53
844442,272,53
844452,303,53
844462,275,53
844473,286,53
844482,299,53
844493,275,53
844504,306,53
844513,292,53
844524,285,53
844535,309,53
844544,282,53
844555,308,53
844564,305,53
844575,285,53
844586,314,53
844596,288,53
844606,295,53
844616,308,53
844627,282,53
844637,310,53
844648,294,53
844658,292,53
844668,319,53
844678,288,53
844689,311,53
844698,309,53
844709,293,53
844719,322,53
844729,297,53
844740,309,53
844750,322,53
844759,294,53
844771,323,53
844781,307,53
844791,303,53
844801,325,53
844811,295,53
844821,320,53
844831,318,53
844843,299,53
844853,330,53
844863,311,53
844873,316,53
844884,333,53
844894,304,53
844904,336,53
844914,323,53
844924,316,53
844935,342,53
844945,310,53
844955,337,53
844966,345,53
844976,326,53
844986,353,53
844997,325,53
845006,323,53
845017,337,53
845027,309,53
845037,336,53
845047,322,53
845058,314,53
845068,341,53
845078,298,53
845088,376,53
845098,647,53
845109,654,53
845119,629,53
845129,189,53
845139,270,53
845150,326,53
845160,287,53
845171,315,53
845181,309,53
845191,302,53
845201,333,53
845212,306,53
845222,323,53
845232,329,53
845243,311,53
845253,343,53
845264,324,53
845273,333,53
845284,353,53
845294,330,53
845305,361,53
845315,357,53
845325,356,53
845334,392,53
845346,372,53
845356,400,53
845366,412,53
845377,398,53
845386,433,53
845397,413,53
845407,405,53
845418,395,53
845427,334,53
845437,332,53
845448,303,53
845459,278,53
845468,301,53
845479,268,53
845488,282,53
845500,289,53
845510,266,53
845520,298,53
845530,277,53
845540,279,53
845550,301,53
845560,274,53
845571,302,53
845581,295,53
845591,283,53
845601,311,53
845612,282,53
845623,300,53
845633,304,53
845643,281,53
845654,311,53
845664,292,53
845674,292,53
845684,310,53
845694,281,53
845704,308,53
845715,301,53
845725,289,53
845736,319,53
845745,292,53
845756,305,53
845767,314,53
845776,290,53
845787,317,53
845797,298,53
845807,300,53
845818,323,53
845827,292,53
845838,317,53
845849,313,53
845859,299,53
845869,329,53
845879,302,53
845889,317,53
845900,327,53
845909,302,53
845921,333,53
845931,314,53
845941,313,53
845951,334,53
845961,306,53
845972,331,53
845982,323,53
845992,308,53
846003,338,53
846013,312,53
846022,324,53
846034,337,53
846044,312,53
846054,340,53
846064,322,53
846074,322,53
846085,346,53
846095,315,53
846105,345,53
846115,350,53
846125,336,53
846136,360,53
846145,330,53
846157,337,53
846167,343,53
846177,314,53
846188,343,53
846198,326,53
846208,320,53
846218,346,53
846228,306,53
846239,370,53
846249,605,53
846259,653,53
846269,652,53
846280,258,53
846290,259,53
846300,336,53
846310,293,53
846320,317,53
846331,304,53
846341,305,53
846352,330,53
846362,303,53
846372,327,53
846383,328,53
846393,316,53
846403,349,53
846413,325,53
846424,337,53
846434,353,53
846444,330,53
846454,363,53
846465,353,53
846474,354,53
846485,384,53
846495,362,53
846505,395,53
846516,402,53
846526,396,53
846536,428,53
846547,406,53
846557,410,53
846567,404,53
846577,350,53
846587,352,53
846597,316,53
846608,294,53
846618,308,53
846629,276,53
846639,295,53
846649,294,53
846659,276,53
846669,307,53
846680,283,53
846690,292,53
846701,309,53
846711,281,53
846721,310,53
846731,300,53
846742,292,53
846752,316,53
