Timestamp,ECGValue,BPM
67527,317,55
67536,305,55
67547,325,55
67557,309,55
67568,314,55
67578,326,55
67587,308,55
67598,330,55
67609,319,55
67619,315,55
67629,334,55
67639,315,55
67650,326,55
67660,328,55
67670,316,55
67680,338,55
67691,322,55
67701,328,55
67711,338,55
67721,315,55
67731,338,55
67742,328,55
67752,321,55
67763,341,55
67773,320,55
67782,334,55
67793,338,55
67803,322,55
67814,344,55
67823,328,55
67834,338,55
67845,365,55
67855,336,55
67865,349,55
67875,341,55
67886,323,55
67896,342,55
67906,320,55
67916,331,55
67926,340,55
67936,319,55
67946,340,55
67957,317,55
67968,364,55
67978,618,55
67988,653,55
67998,650,55
68009,245,55
68019,262,55
68029,336,55
68040,299,55
68050,307,55
68059,317,55
68070,301,55
68081,325,55
68091,316,55
68101,316,55
68112,337,55
68122,316,55
68132,335,55
68142,335,55
68152,330,55
68162,351,55
68172,337,55
68183,348,55
68194,363,55
68204,350,55
68214,379,55
68224,378,55
68235,382,55
68245,410,55
68255,400,55
68266,421,55
68276,425,55
68286,414,55
68296,425,55
68307,380,55
68317,355,55
68327,340,55
68338,297,55
68347,302,55
68358,288,55
68367,278,55
68379,296,55
68389,274,55
68399,286,55
68409,292,55
68420,279,55
68430,299,55
68440,288,55
68450,290,55
68460,301,55
68470,285,55
68481,300,55
68491,295,55
68501,287,55
68512,307,55
68522,288,55
68532,299,55
68543,304,55
68553,287,55
68564,307,55
68574,294,55
68584,295,55
68594,309,55
68604,289,55
68615,306,55
68625,304,55
68635,296,55
68645,315,55
68656,297,55
68666,308,55
68676,312,55
68686,295,55
68696,318,55
68707,305,55
68717,305,55
68727,323,55
68737,302,55
68748,319,55
68758,316,55
68768,306,55
68779,327,55
68789,309,55
68799,320,55
68810,327,55
68820,308,55
68830,329,55
68840,317,55
68851,314,55
68861,332,55
68871,314,55
68882,325,55
68892,328,55
68902,329,55
68912,356,55
68923,329,55
68933,335,55
68943,336,55
68953,311,55
68963,327,55
68974,320,55
68984,314,55
68995,332,55
69005,311,55
69015,323,55
69025,320,55
69036,434,55
69046,652,54
69056,653,54
69066,424,54
69076,203,54
69087,293,54
69097,318,54
69108,299,54
69118,298,54
69128,323,54
69138,304,54
69149,321,54
69158,323,54
69169,311,54
69179,335,54
69190,322,54
69199,329,54
69210,344,54
69220,330,54
69230,350,54
69240,346,54
69250,346,54
69261,373,54
69271,361,54
69282,379,54
69292,391,54
69302,388,54
69312,420,54
69323,413,54
69333,419,54
69343,437,54
69354,406,54
69364,401,54
69375,364,54
69384,323,54
69395,318,54
69405,285,54
69416,284,54
69425,288,54
69435,268,54
69446,290,54
69457,277,54
69467,278,54
69477,297,54
69487,275,54
69497,292,54
69508,293,54
69518,280,54
69528,305,54
69539,288,54
69548,293,54
69559,302,54
69570,283,54
69580,304,54
69590,291,54
69600,290,54
69610,308,54
69620,288,54
69631,301,54
69641,302,54
69651,288,54
69662,312,54
69672,293,54
69682,301,54
69693,312,54
69703,293,54
69712,315,54
69722,304,54
69734,302,54
69744,319,54
69754,299,54
69765,314,54
69774,316,54
69785,303,54
69795,324,54
69805,308,54
69816,313,54
69825,324,54
69836,308,54
69847,325,54
69857,318,54
69866,312,54
69877,331,54
69887,311,54
69898,323,54
69907,328,54
69919,312,54
69928,334,54
69939,320,54
69949,324,54
69959,336,54
69970,318,54
69980,336,54
69990,330,54
70001,322,54
70011,340,54
70020,322,54
70031,334,54
70041,337,54
70052,321,54
70062,357,54
70072,346,54
70083,338,54
70093,350,54
70103,325,54
70113,338,54
70124,330,54
70134,318,54
70144,338,54
70154,320,54
70164,332,54
70174,332,54
70185,322,54
70195,496,54
70206,653,54
70216,653,54
70226,416,54
70236,209,54
70247,331,54
70257,315,54
70266,296,54
70278,321,54
70287,304,54
70297,314,54
70309,324,54
70318,308,54
70328,333,54
70339,322,54
70349,324,54
70360,342,54
70370,326,54
70380,344,54
70390,347,54
70400,337,54
70410,361,54
70421,349,54
70432,364,54
70442,381,54
70452,372,54
70462,398,54
70473,400,54
70483,402,54
70493,425,54
70504,406,54
70514,417,54
70524,399,54
70534,359,54
70544,354,54
70555,311,54
70565,302,54
70575,304,54
70586,281,54
70596,299,54
70607,290,54
70617,285,54
70627,303,54
70637,285,54
70647,299,54
70658,301,54
70668,286,54
70678,308,54
70688,293,54
70699,299,54
70709,308,54
70719,288,54
70728,307,54
70740,303,54
70750,294,54
70760,313,54
70770,291,54
70780,301,54
70790,305,54
70801,289,54
70811,310,54
70822,298,54
70832,299,54
70842,312,54
70852,295,54
70862,313,54
70873,310,54
70883,300,54
70893,320,54
70903,302,54
70914,311,54
70924,317,54
70934,302,54
70945,321,54
70955,311,54
70965,308,54
70976,326,54
70986,304,54
70996,319,54
71006,318,54
71016,306,54
71027,330,54
71036,311,54
71047,317,54
71058,326,54
71068,310,54
71078,331,54
71089,323,54
71098,320,54
71109,336,54
71119,315,54
71129,330,54
71140,331,54
71150,317,54
71161,338,54
71171,323,54
71181,329,54
71191,336,54
71202,318,54
71212,339,54
71222,328,54
71231,323,54
71243,342,54
71253,322,54
71263,339,54
71274,356,54
71284,344,54
71294,358,54
71304,336,54
71314,334,54
71325,338,54
71335,319,54
71345,334,54
71356,326,54
71365,322,54
71375,342,54
71386,317,54
71397,340,54
71407,506,53
71417,653,53
71427,653,53
71436,381,53
71448,220,53
71458,335,53
71468,303,53
71479,314,53
71488,311,53
71499,304,53
71510,325,53
71519,307,53
71530,323,53
71540,330,53
71551,315,53
71561,340,53
71571,330,53
71581,332,53
71591,347,53
71601,335,53
71612,353,53
71622,355,53
71633,351,53
71643,379,53
71653,366,53
71663,387,53
71674,403,53
71684,396,53
71694,426,53
71704,420,53
71714,423,53
71725,431,53
71735,391,53
71746,378,53
71755,345,53
71766,310,53
71776,311,53
71787,285,53
71797,289,53
71807,294,53
71817,274,53
71828,298,53
71838,285,53
71848,285,53
71859,301,53
71869,280,53
71878,299,53
71889,297,53
71900,286,53
71910,305,53
71920,292,53
71930,297,53
71941,308,53
71951,289,53
71961,308,53
71971,299,53
71982,293,53
71992,310,53
72003,289,53
72013,301,53
72023,301,53
72033,288,53
72043,311,53
72052,294,53
72063,300,53
72074,312,53
72084,293,53
72094,312,53
72105,304,53
72115,300,53
72125,322,53
72136,300,53
72146,312,53
72156,318,53
72166,304,53
72177,328,53
72187,309,53
72197,314,53
72207,327,53
72217,307,53
72228,326,53
72238,320,53
72248,311,53
72259,329,53
72269,312,53
72279,321,53
72289,328,53
72299,315,53
72310,335,53
72320,319,53
72331,327,53
72341,355,53
72351,330,53
72361,345,53
72371,335,53
72381,317,53
72392,334,53
72402,313,53
72412,321,53
72423,327,53
72433,309,53
72444,333,53
72453,308,53
72463,369,53
72474,648,53
72485,653,53
72495,616,53
72505,197,53
72515,266,53
72526,326,53
72536,298,53
72546,305,53
72556,316,53
72567,299,53
72577,322,53
72587,313,53
72598,314,53
72607,334,53
72618,316,53
72628,332,53
72639,337,53
72648,325,53
72659,350,53
72669,338,53
72680,347,53
72690,363,53
72700,352,53
72710,380,53
72721,380,53
72730,387,53
72742,417,53
72751,403,53
72762,425,53
72772,429,53
72782,411,53
72793,415,53
72802,368,53
72814,345,53
72824,328,53
72834,284,53
72844,293,53
72854,281,53
72864,269,53
72875,290,53
72885,271,53
72895,286,53
72906,289,53
72916,278,53
72926,299,53
72937,282,53
72946,287,53
72956,301,53
72967,281,53
72977,301,53
72987,294,53
72997,285,53
73008,305,53
73018,286,53
73029,296,53
73038,302,53
73049,284,53
73060,308,53
73069,293,53
73080,293,53
73091,310,53
73101,289,53
73110,304,53
73121,302,53
73131,293,53
73142,317,53
73152,298,53
73162,308,53
73173,314,53
73183,297,53
73193,322,53
73203,308,53
73213,309,53
73224,325,53
73234,304,53
73244,322,53
73254,318,53
73264,306,53
73275,329,53
73285,312,53
73296,320,53
73306,328,53
73316,309,53
73327,332,53
73336,320,53
73346,318,53
73357,336,53
73367,313,53
73378,328,53
73388,329,53
73398,320,53
73408,342,53
73418,322,53
73429,328,53
73439,355,53
73449,342,53
73460,350,53
73470,339,53
73480,328,53
73491,340,53
73501,316,53
73511,330,53
73522,331,53
73531,313,53
73541,338,53
73552,320,53
73562,315,53
73573,431,53
73583,652,52
73594,653,52
73603,548,52
73613,195,52
73624,321,52
73634,308,52
73645,306,52
73655,312,52
73665,300,52
73676,322,52
73685,312,52
73696,315,52
73706,329,52
73716,314,52
73727,335,52
73737,329,52
73747,325,52
73758,346,52
73768,330,52
73778,345,52
73789,355,52
73799,342,52
73809,370,52
73819,362,52
73829,371,52
73840,398,52
73849,388,52
73860,411,52
73870,415,52
73880,407,52
73890,423,52
73901,392,52
73911,371,52
73921,353,52
73932,311,52
73943,316,52
73953,291,52
73963,285,52
73974,300,52
73984,278,52
73994,295,52
74004,293,52
74014,281,52
74025,303,52
74034,285,52
74044,295,52
74055,305,52
74065,284,52
74076,305,52
74086,295,52
74096,292,52
74106,310,52
74117,288,52
74127,303,52
74137,302,52
74148,288,52
74158,311,52
74168,294,52
74179,298,52
74189,311,52
74199,291,52
74209,311,52
74219,302,52
74230,297,52
74240,317,52
74250,295,52
74261,311,52
74271,312,52
74281,296,52
74292,323,52
74302,305,52
74312,309,52
74322,322,52
74332,302,52
74343,321,52
74353,316,52
74363,311,52
74374,328,52
74384,308,52
74394,321,52
74404,327,52
74415,310,52
74424,332,52
74435,316,52
74446,320,52
74455,335,52
74466,315,52
74475,336,52
74486,331,52
74497,320,52
74507,340,52
74518,317,52
74528,329,52
74538,338,52
74547,319,52
74558,343,52
74569,328,52
74578,329,52
74589,345,52
74599,319,52
74609,349,52
74620,358,52
74630,338,52
74641,357,52
74651,333,52
74660,334,52
74671,339,52
74681,316,52
74692,339,52
74702,327,52
74712,323,52
74723,341,52
74733,308,52
74743,363,52
74754,590,52
74764,653,52
74774,651,52
74784,243,52
74794,263,52
74805,333,52
74815,293,52
74825,313,52
74836,307,52
74845,306,52
74856,324,52
74866,305,52
74876,324,52
74887,329,52
74897,314,52
74908,339,52
74917,325,52
74928,334,52
74938,348,52
74948,333,52
74959,360,52
74969,354,52
74979,352,52
74990,379,52
75000,364,52
75010,389,52
75020,404,52
75031,394,52
75041,427,52
75050,414,52
75061,417,52
75072,420,52
75082,373,52
75092,367,52
75102,334,52
75113,304,52
75123,310,52
75133,282,52
75143,293,52
75153,297,52
75163,278,52
75174,301,52
75184,288,52
75194,289,52
75204,301,52
75215,280,52
75225,304,52
75235,300,52
75245,290,52
75256,310,52
75266,290,52
75277,300,52
75287,306,52
75297,287,52
75307,309,52
75318,295,52
75328,294,52
75338,307,52
75349,289,52
75358,306,52
75369,302,52
75379,290,52
75389,313,52
75400,293,52
75410,305,52
75420,313,52
75430,293,52
75440,315,52
75451,305,52
75461,303,52
75472,319,52
75482,301,52
75492,318,52
75503,316,52
75513,307,52
75523,328,52
75534,307,52
75544,316,52
75554,325,52
75565,307,52
75574,328,52
75585,319,52
75595,312,52
75605,330,52
75616,311,52
75626,324,52
75636,325,52
75647,315,52
75657,336,52
75667,318,52
75677,336,52
75688,357,52
75698,330,52
75708,346,52
75718,329,52
75728,319,52
75739,336,52
75749,313,52
75759,327,52
75770,332,52
75780,313,52
75790,335,52
75801,310,52
75811,372,52
75821,646,52
75831,653,52
75841,629,52
75851,198,52
75862,268,52
75872,333,52
75882,300,52
75893,310,52
75903,322,52
75913,303,52
75924,329,52
75933,316,52
75944,320,52
75955,339,52
75964,317,52
75975,336,52
75985,337,52
75996,331,52
76006,356,52
76016,341,52
76027,355,52
76036,370,52
76046,354,52
76057,385,52
76068,383,52
76078,395,52
76088,423,52
76098,410,52
76108,434,52
76118,437,52
76129,425,52
76139,425,52
76149,371,52
76160,347,52
76170,329,52
76180,290,52
76191,297,52
76200,278,52
76211,272,52
76221,290,52
76231,269,52
76242,286,52
76252,287,52
76263,270,52
76273,297,52
76283,283,52
76294,289,52
76304,300,52
76314,281,52
76325,301,52
76334,292,52
76344,285,52
76355,303,52
76364,284,52
76375,295,52
76385,297,52
76396,280,52
76406,302,52
76416,287,52
76427,290,52
76436,305,52
76447,283,52
76457,302,52
76468,296,52
76478,290,52
76488,307,52
76499,290,52
76509,300,52
76518,307,52
76530,291,52
76539,313,52
76550,299,52
76560,300,52
76570,316,52
76580,295,52
76590,313,52
76601,314,52
76612,305,52
76621,325,52
76632,305,52
76643,316,52
76653,322,52
76663,303,52
76673,329,52
76683,316,52
76693,316,52
76704,334,52
76714,315,52
76724,330,52
76735,327,52
76745,329,52
76755,357,52
76765,330,52
76775,337,52
76785,339,52
76796,310,52
76807,332,52
76817,319,52
76827,318,52
76837,334,52
76848,312,52
76858,330,52
76868,319,52
76878,372,52
76889,649,53
76899,653,53
76909,634,53
76919,224,53
76929,272,53
76940,330,53
76951,301,53
76961,299,53
76971,321,53
76981,302,53
76992,319,53
77002,323,53
77011,309,53
77022,334,53
77032,321,53
77042,325,53
77053,340,53
77063,323,53
77074,347,53
77084,345,53
77093,343,53
77104,366,53
77114,350,53
77125,372,53
77134,382,53
77145,380,53
77156,410,53
77166,402,53
77176,413,53
77186,429,53
77197,408,53
77207,414,53
77217,376,53
77227,339,53
77238,335,53
77248,298,53
77258,298,53
77269,295,53
77278,278,53
77289,298,53
77299,284,53
77309,286,53
77320,302,53
77330,281,53
77341,302,53
77351,294,53
77361,287,53
77371,308,53
77382,291,53
77392,302,53
77402,309,53
77412,291,53
77423,312,53
77432,299,53
77443,297,53
77453,310,53
77464,290,53
77474,308,53
77484,305,53
77494,294,53
77504,317,53
77515,299,53
77525,307,53
77535,315,53
77545,297,53
77556,317,53
77566,306,53
77576,305,53
77587,322,53
77597,300,53
77607,318,53
77617,317,53
77627,304,53
77638,327,53
77649,309,53
77658,315,53
77669,327,53
77679,307,53
77690,329,53
77700,321,53
77710,316,53
77719,335,53
77731,313,53
77741,327,53
77751,329,53
77761,315,53
77772,339,53
77782,321,53
77792,327,53
77802,338,53
77812,316,53
77823,338,53
77833,329,53
77844,322,53
77854,341,53
77864,318,53
77874,334,53
77884,337,53
77894,323,53
77905,343,53
77915,331,53
77925,346,53
77936,365,53
77945,334,53
77956,353,53
77967,338,53
77977,322,53
77987,340,53
77997,319,53
78008,332,53
78018,337,53
78028,320,53
78039,342,53
78049,317,53
78059,421,53
78069,652,53
78080,653,53
78090,554,53
78100,208,53
78111,303,53
78120,334,53
78130,296,53
78141,310,53
78151,317,53
78161,301,53
78172,327,53
78182,316,53
78193,315,53
78203,332,53
78213,316,53
78223,334,53
78234,337,53
78243,328,53
78254,351,53
78264,339,53
78275,351,53
78285,364,53
78295,351,53
78305,380,53
78315,379,53
78326,382,53
78336,411,53
78346,398,53
78357,421,53
78367,423,53
78377,408,53
78388,417,53
78397,371,53
78408,350,53
78418,334,53
78428,299,53
78439,307,53
78449,291,53
78460,285,53
78469,301,53
78480,280,53
78490,294,53
78500,298,53
78511,282,53
78521,305,53
78532,289,53
78542,295,53
78552,306,53
78562,283,53
78572,304,53
78583,296,53
78593,290,53
78602,306,53
78614,286,53
78624,299,53
78634,303,53
78644,287,53
78654,306,53
78665,293,53
78675,297,53
78685,310,53
78696,289,53
78705,310,53
78716,303,53
78727,296,53
78736,318,53
78747,297,53
78756,309,53
78767,316,53
78777,301,53
78788,323,53
78798,307,53
78808,310,53
78819,325,53
78829,303,53
78839,324,53
78850,318,53
78860,306,53
78870,330,53
78880,311,53
78890,320,53
78901,325,53
78911,308,53
78921,330,53
78932,317,53
78941,316,53
78952,335,53
78963,314,53
78973,331,53
78983,332,53
78993,318,53
79004,341,53
79014,331,53
79024,346,53
79034,350,53
79044,330,53
79055,342,53
79065,323,53
79076,319,53
79086,334,53
79096,312,53
79106,326,53
79117,328,53
79127,317,53
79137,327,53
79148,372,53
79157,649,53
79167,653,53
79178,611,53
79188,200,53
79198,278,53
79208,310,53
79218,318,53
79229,297,53
79239,316,53
79250,322,53
79260,306,53
79271,333,53
79280,315,53
79291,324,53
79301,336,53
79311,321,53
79322,346,53
79332,339,53
79342,336,53
79353,359,53
79363,345,53
79373,364,53
79383,374,53
79393,364,53
79404,395,53
79414,391,53
79424,407,53
79434,430,53
79445,417,53
79455,441,53
79466,430,53
79476,401,53
79486,392,53
79497,338,53
79507,320,53
79517,306,53
79526,276,53
79538,290,53
79548,274,53
79558,272,53
79567,287,53
79578,267,53
79589,287,53
79599,288,53
79609,279,53
79619,298,53
79630,281,53
79640,292,53
79650,300,53
79661,280,53
79670,302,53
79681,288,53
79691,288,53
79701,304,53
79712,281,53
79722,299,53
79732,299,53
79742,284,53
79753,306,53
79763,287,53
79773,294,53
79783,303,53
79793,284,53
79804,305,53
79815,296,53
79825,290,53
79835,310,53
79845,289,53
79855,303,53
79866,305,53
79876,294,53
79886,316,53
79896,300,53
79906,306,53
79917,317,53
79927,299,53
79938,320,53
79948,312,53
79958,304,53
79968,322,53
79979,308,53
79989,339,53
79999,338,53
80009,317,53
80020,337,53
80030,309,53
80040,312,53
80050,324,53
80060,302,53
80071,323,53
80081,314,53
80092,311,53
80101,324,53
80112,308,53
80122,484,53
80133,653,54
80142,653,54
80153,373,54
80164,204,54
80174,308,54
80184,313,54
80194,286,54
80205,308,54
80214,304,54
80225,298,54
80235,323,54
80245,306,54
80256,318,54
80266,326,54
80276,312,54
80287,336,54
80297,325,54
80307,329,54
80317,349,54
80327,333,54
80338,355,54
80348,358,54
80358,353,54
80369,382,54
80379,374,54
80390,394,54
80400,412,54
80409,404,54
80420,429,54
80430,416,54
80440,403,54
80451,395,54
80461,344,54
80471,332,54
80482,310,54
80491,282,54
80502,296,54
80513,274,54
80523,283,54
80533,292,54
80543,274,54
80554,298,54
80564,288,54
80574,284,54
80585,304,54
80594,284,54
80605,299,54
80614,298,54
80625,284,54
80636,308,54
80646,289,54
80656,294,54
80666,306,54
80676,284,54
80687,305,54
80697,297,54
80708,292,54
80718,312,54
80729,291,54
80738,306,54
80749,306,54
80759,293,54
80769,316,54
80780,302,54
80790,306,54
80800,318,54
80810,298,54
80821,319,54
80830,310,54
80841,303,54
80851,324,54
80861,306,54
80872,318,54
80882,324,54
80892,306,54
80902,329,54
80913,313,54
80923,314,54
80933,330,54
80944,308,54
80954,330,54
80964,322,54
80975,314,54
80985,337,54
80995,313,54
81005,326,54
81015,331,54
81026,314,54
81035,336,54
81046,322,54
81057,326,54
81067,340,54
81077,321,54
81087,339,54
81098,333,54
81107,337,54
81118,367,54
81128,336,54
81139,343,54
81149,347,54
81160,317,54
81170,338,54
81180,324,54
81190,320,54
81200,337,54
81211,317,54
81220,334,54
81231,322,54
81241,391,54
81251,651,54
81262,653,54
81272,610,54
81282,223,54
81293,287,54
81303,329,54
81314,299,54
81324,298,54
81334,321,54
81345,301,54
81354,318,54
81365,322,54
81374,309,54
81385,333,54
81395,319,54
81406,326,54
81416,337,54
81426,321,54
81436,344,54
81447,340,54
81457,339,54
81467,365,54
81478,350,54
81488,372,54
81498,383,54
81509,377,54
81519,409,54
81529,400,54
81539,411,54
81550,427,54
81560,403,54
81570,410,54
81580,379,54
81590,344,54
81601,339,54
81611,301,54
81621,299,54
81632,299,54
81642,279,54
81652,301,54
81663,287,54
81673,288,54
81683,303,54
81693,283,54
81704,304,54
81714,299,54
81724,290,54
81734,307,54
81744,288,54
81755,298,54
81765,303,54
81775,287,54
81786,308,54
81796,293,54
81806,294,54
81817,309,54
81827,288,54
81837,306,54
81847,304,54
81857,293,54
81868,314,54
81878,295,54
81888,305,54
81898,312,54
81908,292,54
81919,316,54
81929,304,54
81939,302,54
81950,320,54
81959,298,54
81971,314,54
81981,316,54
81990,303,54
82001,325,54
82011,308,54
82021,316,54
82032,325,54
82041,307,54
82053,328,54
82063,319,54
82072,312,54
82083,333,54
82094,312,54
82104,329,54
82113,329,54
82124,314,54
82134,337,54
82144,321,54
82155,324,54
82165,339,54
82175,314,54
82185,337,54
82195,328,54
82206,327,54
82217,345,54
82227,322,54
82237,342,54
82247,358,54
82257,341,54
82268,355,54
82278,337,54
82289,331,54
82299,339,54
82309,316,54
82319,337,54
82329,330,54
82340,322,54
82350,344,54
82360,318,54
82371,329,54
82380,498,54
82391,653,54
82401,653,54
82412,408,54
82422,211,54
82432,328,54
82443,301,54
82453,311,54
82463,311,54
82473,304,54
82483,326,54
82493,309,54
82504,321,54
82514,328,54
82524,315,54
82534,340,54
82545,326,54
82556,331,54
82566,350,54
82576,334,54
82587,354,54
82596,356,54
82607,351,54
82617,382,54
82627,370,54
82637,390,54
82647,410,54
82658,401,54
82668,435,54
82679,427,54
82689,427,54
82699,436,54
82710,395,54
82719,378,54
82729,347,54
82740,309,54
82750,313,54
82761,283,54
82771,286,54
82781,293,54
82792,272,54
82801,295,54
82812,285,54
82822,280,54
82832,302,54
82843,282,54
82853,296,54
82863,298,54
82874,287,54
82884,310,54
82894,290,54
82904,294,54
82915,306,54
82925,287,54
82935,306,54
82945,297,54
82956,292,54
82966,311,54
82977,290,54
82987,303,54
82997,302,54
83007,288,54
83017,313,54
83027,297,54
83037,301,54
83048,313,54
83059,292,54
83069,315,54
83079,307,54
83089,298,54
83099,319,54
83110,299,54
83120,310,54
83130,316,54
83140,300,54
83151,323,54
83161,309,54
83172,311,54
83181,326,54
83192,303,54
83201,329,54
83212,340,54
83223,328,54
83233,342,54
83243,321,54
83254,321,54
83264,321,54
83274,301,54
83284,325,54
83295,311,54
83305,311,54
83315,326,54
83325,301,54
83335,327,54
83346,500,54
83356,653,55
83366,653,55
83377,315,55
83387,214,55
83397,314,55
83407,293,55
83417,310,55
83428,299,55
83439,301,55
83449,322,55
83459,302,55
83469,320,55
83479,324,55
83489,314,55
83499,340,55
83511,325,55
83521,333,55
83531,347,55
83541,328,55
83551,355,55
83562,352,55
83572,352,55
83582,381,55
83592,366,55
83603,395,55
83612,407,55
83623,403,55
83633,433,55
83644,423,55
83654,425,55
83664,421,55
83674,371,55
83684,359,55
83695,322,55
83705,292,55
83715,299,55
83726,272,55
83735,280,55
83746,282,55
83757,267,55
83767,292,55
83778,276,55
83787,280,55
83797,296,55
83807,277,55
83818,295,55
83829,294,55
83839,284,55
83849,304,55
83859,284,55
83870,294,55
83880,298,55
83890,282,55
83900,304,55
83910,290,55
83920,291,55
83931,304,55
83941,283,55
83951,302,55
83962,297,55
83972,288,55
83982,310,55
83993,290,55
84003,302,55
84013,308,55
84024,291,55
84034,315,55
84044,300,55
84054,301,55
84064,317,55
84074,296,55
84084,314,55
84095,312,55
84106,300,55
84116,323,55
84126,304,55
84136,311,55
84146,321,55
84157,302,55
84166,326,55
84177,315,55
84188,312,55
84198,331,55
84208,311,55
84218,325,55
84229,327,55
84239,313,55
84249,335,55
84260,318,55
84270,325,55
84280,334,55
84290,314,55
84300,337,55
84311,324,55
84321,321,55
84331,354,55
84342,339,55
84351,343,55
84362,343,55
84373,324,55
84383,341,55
84393,322,55
84403,323,55
84414,336,55
84424,315,55
84434,335,55
84444,328,55
84455,311,55
84465,425,55
84475,651,55
84486,653,55
84495,592,55
84505,194,55
84515,314,55
84527,314,55
84536,301,55
84547,315,55
84557,295,55
84567,320,55
84578,318,55
84587,309,55
84597,331,55
84609,315,55
84619,330,55
84629,334,55
84639,321,55
84649,348,55
84660,337,55
84670,341,55
84680,360,55
84691,343,55
84700,367,55
84711,370,55
84722,370,55
84732,399,55
84742,390,55
84752,410,55
84763,423,55
84773,405,55
84783,428,55
84794,399,55
84803,371,55
84814,359,55
84824,314,55
84834,314,55
84844,301,55
84855,283,55
84865,304,55
84876,284,55
84886,289,55
84895,299,55
84907,281,55
84916,301,55
84927,292,55
84937,287,55
84948,305,55
84958,283,55
84967,301,55
84978,299,55
84988,285,55
84999,306,55
85009,287,55
85019,296,55
85030,305,55
85040,285,55
85050,305,55
85060,293,55
85070,290,55
85081,309,55
85091,288,55
85100,304,55
85112,307,55
85122,293,55
85132,315,55
85143,301,55
85152,303,55
85162,316,55
85173,297,55
85183,319,55
85194,310,55
85203,301,55
85215,323,55
85225,304,55
85234,317,55
85245,320,55
85254,303,55
85266,326,55
85276,310,55
85286,316,55
85297,328,55
85307,308,55
85317,327,55
85328,322,55
85338,311,55
85348,333,55
85358,312,55
85368,325,55
85379,330,55
85389,312,55
85399,335,55
85410,323,55
85420,325,55
85430,339,55
85440,315,55
85450,335,55
85461,331,55
85471,320,55
85481,342,55
85492,322,55
85502,330,55
85512,335,55
85522,328,55
85532,363,55
85543,343,55
85552,340,55
85563,353,55
85574,322,55
85583,336,55
85594,333,55
85604,320,55
85615,341,55
85624,322,55
85635,332,55
85646,329,55
85656,341,55
85666,579,54
85676,653,54
85686,652,54
85696,287,54
85707,244,54
85717,330,54
85728,312,54
85738,295,54
85747,320,54
85758,303,54
85768,312,54
85778,327,54
85789,307,54
85799,331,54
85809,324,54
85820,324,54
85830,342,54
85840,325,54
85851,343,54
85860,347,54
85871,337,54
85881,367,54
85892,357,54
85902,366,54
85912,387,54
85923,377,54
85933,409,54
85943,410,54
85953,411,54
85964,436,54
85974,417,54
85983,419,54
85994,401,54
86005,356,54
86015,349,54
86025,310,54
86035,295,54
86046,301,54
86056,279,54
86066,295,54
86077,290,54
86087,278,54
86097,302,54
86107,283,54
86117,295,54
86128,300,54
86138,281,54
86148,304,54
86159,293,54
86168,291,54
86179,307,54
86190,286,54
86200,303,54
86210,298,54
86220,286,54
86231,309,54
86241,290,54
86251,295,54
86261,305,54
86272,285,54
86282,309,54
86292,297,54
86302,295,54
86313,313,54
86322,293,54
86333,307,54
86344,310,54
86353,297,54
86364,320,54
86374,303,54
86384,308,54
86394,318,54
86405,298,54
86415,322,54
86426,312,54
86436,306,54
86446,327,54
86456,306,54
86466,320,54
86477,320,54
86487,307,54
86498,333,54
86508,317,54
86518,318,54
86528,332,54
86538,324,54
86548,352,54
86559,335,54
86569,327,54
86580,342,54
86590,315,54
86599,325,54
86611,326,54
86620,311,54
86631,334,54
86641,319,54
86652,318,54
86662,320,54
86672,354,54
86682,635,55
86692,653,55
86703,632,55
86712,213,55
86723,263,55
86733,318,55
86744,311,55
86753,293,55
86764,319,55
86775,306,55
86785,309,55
86795,328,55
86806,308,55
86815,331,55
86826,329,55
86835,323,55
86846,343,55
86857,327,55
86866,341,55
86877,351,55
86887,338,55
86898,367,55
86908,360,55
86919,368,55
86929,392,55
86938,385,55
86949,414,55
86959,421,55
86969,416,55
86980,443,55
86990,419,55
87001,409,55
87010,386,55
87021,335,55
87031,330,55
87041,301,55
87052,284,55
87062,295,55
87072,271,55
87082,287,55
87093,289,55
87102,276,55
87113,300,55
87124,281,55
87134,287,55
87144,300,55
87154,282,55
87165,306,55
87175,296,55
87185,291,55
87195,309,55
87205,287,55
87215,301,55
87226,301,55
87236,287,55
87247,308,55
87257,292,55
87267,297,55
87278,307,55
87288,287,55
87298,307,55
87308,299,55
87319,293,55
87329,314,55
87339,293,55
87350,304,55
87360,310,55
87370,295,55
87380,318,55
87391,301,55
87401,307,55
87411,322,55
87421,297,55
87431,318,55
87441,312,55
87452,306,55
87463,328,55
87472,306,55
87483,318,55
87493,323,55
87504,306,55
87514,328,55
87524,315,55
87534,317,55
87545,330,55
87555,311,55
87565,329,55
87576,322,55
87586,315,55
87596,337,55
87606,317,55
87616,326,55
87626,333,55
87637,315,55
87648,338,55
87657,328,55
87668,323,55
87678,340,55
87687,331,55
87699,356,55
87709,345,55
87719,332,55
87730,349,55
87740,321,55
87750,329,55
87759,333,55
87770,314,55
87780,339,55
87790,326,55
87801,322,55
87811,329,55
87822,384,55
87832,650,54
87842,653,54
87853,611,54
87863,221,54
87873,286,54
87883,320,54
87894,313,54
87904,295,54
87914,318,54
87924,308,54
87934,304,54
87944,328,54
87955,309,54
87966,323,54
87976,329,54
87986,316,54
87996,343,54
88006,328,54
88017,333,54
88026,349,54
88037,333,54
88048,358,54
88058,356,54
88068,357,54
88078,387,54
88088,371,54
88099,397,54
88109,410,54
88120,398,54
88130,425,54
88140,410,54
88151,399,54
88161,386,54
88171,337,54
88181,331,54
88191,307,54
88202,286,54
88211,301,54
88222,278,54
88232,290,54
88243,295,54
88253,279,54
88263,301,54
88273,288,54
88284,289,54
88294,305,54
88304,284,54
88315,302,54
88324,300,54
88335,288,54
88345,309,54
88356,288,54
88365,297,54
88375,303,54
88386,286,54
88397,306,54
88407,294,54
88417,291,54
88428,309,54
88438,288,54
88447,305,54
88458,305,54
88468,290,54
88478,312,54
88489,295,54
88498,303,54
88509,312,54
88520,293,54
88530,314,54
88540,305,54
88551,301,54
88561,318,54
88571,299,54
88581,316,54
88591,316,54
88602,306,54
88612,326,54
88623,309,54
88633,316,54
88643,327,54
88653,306,54
88663,328,54
88674,318,54
88684,314,54
88694,332,54
88705,311,54
88715,325,54
88725,330,54
88735,313,54
88745,336,54
88756,319,54
88766,323,54
88776,338,54
88786,315,54
88797,336,54
88807,329,54
88817,322,54
88827,340,54
88837,321,54
88848,335,54
88859,336,54
88869,316,54
88879,351,54
88889,350,54
88899,344,54
88910,354,54
88920,330,54
88930,340,54
88941,332,54
88951,321,54
88961,341,54
88972,318,54
88982,331,54
88992,335,54
89001,307,54
89013,361,54
89023,565,54
89033,653,54
89043,652,54
89054,272,54
89064,261,54
89074,328,54
89085,295,54
89094,316,54
89105,298,54
89115,309,54
89125,319,54
89136,305,54
89146,327,54
89156,318,54
89166,318,54
89176,340,54
89187,320,54
89197,340,54
89208,342,54
89218,331,54
89228,356,54
89239,344,54
89248,359,54
89259,374,54
89269,361,54
89279,394,54
89290,394,54
89300,400,54
89310,429,54
89321,412,54
89331,428,54
89341,418,54
89351,381,54
89362,373,54
89372,326,54
89381,311,54
89392,306,54
89402,279,54
89412,295,54
89423,284,54
89433,281,54
89444,300,54
89454,280,54
89464,292,54
89474,297,54
89484,283,54
89495,306,54
89505,289,54
89515,295,54
89526,305,54
89536,287,54
89546,306,54
89557,296,54
89567,288,54
89577,310,54
89587,285,54
89597,300,54
89607,305,54
89618,289,54
89629,312,54
89639,297,54
89649,297,54
89659,315,54
89669,293,54
89680,311,54
89690,305,54
89700,293,54
89711,316,54
89721,298,54
89731,310,54
89741,314,54
89751,298,54
89762,321,54
89772,308,54
89782,303,54
89793,320,54
89803,301,54
89813,318,54
89823,317,54
89834,309,54
89844,330,54
89854,314,54
89864,322,54
89875,330,54
89885,310,54
89896,336,54
89905,323,54
89915,321,54
89926,338,54
89936,317,54
89946,332,54
89957,332,54
89967,319,54
89978,342,54
89988,323,54
89998,332,54
90007,341,54
90019,325,54
90029,363,54
90039,352,54
90049,342,54
90060,357,54
90070,326,54
90080,336,54
90090,335,54
90101,316,54
90111,339,54
90121,319,54
90131,330,54
90142,336,54
90152,318,54
90162,493,54
90172,653,54
90182,653,54
90193,410,54
90203,198,54
90214,315,54
90224,320,54
90234,299,54
90245,322,54
90254,307,54
90264,316,54
90274,332,54
90286,313,54
90295,334,54
90306,329,54
90316,323,54
90326,346,54
90337,331,54
90347,346,54
90357,355,54
90368,341,54
90378,369,54
90388,359,54
90398,368,54
90409,391,54
90419,381,54
90429,413,54
90439,421,54
90449,423,54
90460,449,54
90470,430,54
90481,432,54
90491,413,54
90501,361,54
90511,349,54
90522,308,54
90532,289,54
90542,297,54
90552,269,54
90563,285,54
90572,282,54
90583,269,54
90593,294,54
90604,273,54
90614,282,54
90624,295,54
90635,277,54
90645,300,54
90655,288,54
90665,288,54
90675,303,54
90686,282,54
90696,299,54
90706,295,54
90717,281,54
90726,304,54
90737,286,54
90747,292,54
90758,301,54
90768,280,54
90778,302,54
90788,297,54
90799,289,54
90809,309,54
90819,289,54
90829,302,54
90840,304,54
90850,291,54
90860,312,54
90871,296,54
90881,302,54
90891,315,54
90901,294,54
90911,314,54
90922,308,54
90931,300,54
90942,323,54
90953,302,54
90962,315,54
90972,320,54
90983,302,54
90994,326,54
91003,311,54
91014,315,54
91024,331,54
91035,310,54
91044,328,54
91055,323,54
91065,315,54
91076,336,54
91086,313,54
91096,327,54
91107,331,54
91117,315,54
91127,339,54
91138,323,54
91148,331,54
91158,360,54
91169,334,54
91178,349,54
91189,338,54
91199,321,54
91209,342,54
91220,320,54
91229,328,54
91240,334,54
91251,316,54
91261,340,54
91271,316,54
91281,346,54
91291,579,53
91302,653,53
91311,652,53
91322,293,53
91332,241,53
91343,338,53
91353,299,53
91363,304,53
91374,316,53
91384,296,53
91394,321,53
91405,312,53
91414,311,53
91425,333,53
91435,315,53
91445,333,53
91455,332,53
91466,322,53
91476,350,53
91486,336,53
91496,346,53
91507,363,53
91518,348,53
91528,376,53
91538,373,53
91548,380,53
91559,409,53
91569,399,53
91579,423,53
91589,430,53
91600,416,53
91610,428,53
91620,385,53
91630,358,53
91641,342,53
91651,298,53
91661,303,53
91672,288,53
91682,278,53
91692,297,53
91702,278,53
91712,290,53
91723,291,53
91733,277,53
91743,302,53
91753,286,53
91763,291,53
91774,306,53
91784,283,53
91795,302,53
91804,297,53
91815,289,53
91825,311,53
91836,286,53
91846,297,53
91856,303,53
91866,286,53
91876,309,53
91887,292,53
91897,294,53
91908,310,53
91917,289,53
91927,308,53
91937,305,53
91948,295,53
91958,314,53
91968,297,53
91980,308,53
91990,313,53
91999,295,53
92010,319,53
92020,308,53
92031,306,53
92041,323,53
92051,300,53
92062,317,53
92072,316,53
92082,304,53
92092,328,53
92102,310,53
92113,317,53
92123,327,53
92133,309,53
92143,331,53
92153,318,53
92164,314,53
92174,332,53
92184,313,53
92195,330,53
92205,330,53
92216,316,53
92226,337,53
92236,317,53
92246,324,53
92257,334,53
92267,315,53
92277,336,53
92287,325,53
92297,322,53
92308,339,53
92318,320,53
92329,334,53
92339,335,53
92349,320,53
92359,342,53
92369,326,53
92380,328,53
92390,341,53
92400,324,53
92411,340,53
92421,334,53
92431,339,53
92442,369,53
92452,338,53
92462,348,53
92471,346,53
92482,323,53
92493,344,53
92503,322,53
92513,326,53
92523,339,53
92534,318,53
92544,338,53
92554,320,53
92564,381,53
92575,650,53
92585,653,53
92596,635,53
92606,228,53
92616,278,53
92626,333,53
92636,300,53
92646,303,53
92657,318,53
92667,300,53
92677,324,53
92688,321,53
92698,314,53
92708,336,53
92719,317,53
92729,331,53
92739,339,53
92749,324,53
92759,350,53
92769,341,53
92780,344,53
92790,366,53
92801,348,53
92811,373,53
92821,378,53
92831,376,53
92841,410,53
92852,401,53
92862,416,53
92873,430,53
92883,414,53
92893,427,53
92903,389,53
92913,356,53
92924,346,53
92934,302,53
92944,308,53
92954,295,53
92964,280,53
92975,301,53
92985,285,53
92996,291,53
93006,300,53
93016,281,53
93026,303,53
93037,295,53
93046,289,53
93057,309,53
93067,286,53
93077,300,53
93088,302,53
93098,285,53
93108,310,53
93119,291,53
93129,297,53
93139,307,53
93150,286,53
93160,307,53
93170,297,53
93180,291,53
93190,314,53
93201,291,53
93210,305,53
93221,309,53
93231,293,53
93242,317,53
93252,302,53
93262,302,53
93272,319,53
93283,296,53
93293,315,53
93304,311,53
93313,303,53
93324,325,53
93334,304,53
93344,316,53
93355,322,53
93364,305,53
93375,327,53
93386,314,53
93396,316,53
93406,329,53
93417,309,53
93426,326,53
93437,320,53
93447,313,53
93457,333,53
93467,315,53
93478,326,53
93489,329,53
93498,316,53
93509,338,53
93519,324,53
93529,322,53
93540,340,53
93550,319,53
93560,336,53
93570,334,53
93581,322,53
93591,344,53
93601,325,53
93611,334,53
93622,339,53
93631,321,53
93643,344,53
93653,332,53
93663,334,53
93673,365,53
93683,340,53
93694,349,53
93703,347,53
93713,327,53
93725,345,53
93734,322,53
93745,329,53
93755,335,53
93765,315,53
93776,339,53
93786,324,53
93796,326,53
93807,511,52
93817,653,52
93827,653,52
93837,388,52
93848,209,52
93858,334,52
93868,303,52
93879,300,52
93888,317,52
93899,299,52
93909,322,52
93919,315,52
93930,311,52
93940,333,52
93950,317,52
93961,332,52
93971,335,52
93980,325,52
93992,348,52
94002,334,52
94012,346,52
94022,361,52
94032,344,52
94042,372,52
94052,372,52
94063,374,52
94073,405,52
94083,392,52
94094,414,52
94104,425,52
94114,412,52
94125,431,52
94135,398,52
94146,371,52
94156,355,52
94166,311,52
94176,312,52
94186,294,52
94196,281,52
94206,298,52
94217,276,52
94228,289,52
94238,294,52
94248,276,52
94258,299,52
94269,287,52
94279,290,52
94289,305,52
94299,284,52
94309,302,52
94320,300,52
94330,289,52
94340,307,52
94351,288,52
94361,296,52
94371,303,52
94381,286,52
94391,306,52
94402,295,52
94412,294,52
94423,311,52
94433,288,52
94443,304,52
94453,303,52
94463,292,52
94473,314,52
94484,297,52
94494,306,52
94504,316,52
94514,295,52
94525,317,52
94535,309,52
94546,304,52
94556,323,52
94566,303,52
94576,317,52
94587,319,52
94597,303,52
94607,327,52
94618,306,52
94628,314,52
94638,324,52
94648,306,52
94658,326,52
94669,318,52
94679,313,52
94689,334,52
94700,313,52
94710,327,52
94720,330,52
94730,313,52
94741,335,52
94751,319,52
94761,326,52
94771,338,52
94782,318,52
94792,337,52
94803,330,52
94812,323,52
94822,341,52
94832,323,52
94843,335,52
94854,336,52
94863,320,52
94875,345,52
94885,327,52
94895,331,52
94905,359,52
94915,341,52
94926,351,52
94936,344,52
94946,325,52
94956,344,52
94967,320,52
94977,331,52
94987,337,52
94997,318,52
95008,341,52
95017,324,52
95028,320,52
95038,459,52
95048,652,51
95059,653,51
95070,501,51
95080,191,51
95090,326,51
95100,310,51
95110,307,51
95121,318,51
95131,301,51
95141,323,51
95151,312,51
95161,313,51
95172,332,51
95182,313,51
95193,333,51
95203,334,51
95213,325,51
95223,348,51
95233,331,51
95244,346,51
95254,361,51
95264,345,51
95275,370,51
95285,368,51
95295,373,51
95305,402,51
95316,393,51
95325,418,51
95336,424,51
95346,416,51
95356,436,51
95366,407,51
95377,386,51
95387,367,51
95397,319,51
95407,319,51
95418,294,51
95428,280,51
95439,297,51
95449,275,51
95460,288,51
95470,290,51
95479,274,51
95490,301,51
95500,283,51
95511,289,51
95521,299,51
95531,281,51
95542,302,51
95552,295,51
95561,286,51
95573,307,51
95582,286,51
95592,295,51
95602,298,51
95613,282,51
95624,304,51
95633,287,51
95644,292,51
95654,306,51
95664,284,51
95675,307,51
95685,298,51
95696,291,51
95706,313,51
95716,291,51
95726,304,51
95737,309,51
95746,292,51
95757,314,51
95767,301,51
95778,303,51
95788,317,51
95798,297,51
95809,315,51
95818,309,51
95828,301,51
95839,323,51
95849,303,51
95860,311,51
95869,320,51
95881,300,51
95890,325,51
95901,310,51
95911,311,51
95921,327,51
95931,308,51
95942,325,51
95952,320,51
95962,308,51
95972,332,51
95983,315,51
95992,325,51
96004,335,51
96014,312,51
96024,343,51
96034,345,51
96045,339,51
96055,353,51
96065,327,51
96075,332,51
96085,328,51
96096,314,51
96106,333,51
96116,314,51
96127,322,51
96137,332,51
96147,306,51
96158,342,51
96167,520,51
96178,653,51
96188,652,51
96199,287,51
96209,232,51
96219,322,51
96229,298,51
96239,318,51
96250,303,51
96260,308,51
96271,324,51
96281,306,51
96291,328,51
96301,322,51
96311,316,51
96322,342,51
96331,321,51
96342,338,51
96353,344,51
96363,331,51
96373,359,51
96383,348,51
96394,354,51
96404,378,51
96414,366,51
96424,394,51
96434,400,51
96444,401,51
96455,429,51
96465,416,51
96476,432,51
96486,431,51
96496,391,51
96506,385,51
96517,339,51
96526,311,51
96537,309,51
96548,277,51
96558,292,51
96568,282,51
96579,274,51
96588,297,51
96598,279,51
96609,290,51
96620,298,51
96630,280,51
96640,302,51
96650,290,51
96661,291,51
96671,305,51
96681,282,51
96691,299,51
96701,296,51
96711,284,51
96722,305,51
96732,286,51
96743,295,51
96753,304,51
96763,283,51
96774,307,51
96784,294,51
96794,292,51
96804,310,51
96814,287,51
96825,306,51
96835,307,51
96845,295,51
96856,317,51
96866,299,51
96876,308,51
96887,315,51
96896,298,51
96906,320,51
96917,308,51
96927,306,51
96938,322,51
96948,303,51
96958,321,51
96968,319,51
96978,303,51
96988,328,51
96999,308,51
97010,313,51
97020,325,51
97030,305,51
97041,327,51
97050,318,51
97060,312,51
97071,334,51
97081,313,51
97091,326,51
97101,329,51
97112,311,51
97122,334,51
97133,317,51
97143,319,51
97153,334,51
97164,315,51
97174,335,51
97184,329,51
97194,319,51
97204,349,51
97215,341,51
97225,346,51
97235,346,51
97246,324,51
97256,338,51
97266,321,51
97276,322,51
97287,335,51
97297,311,51
97307,332,51
97317,328,51
97328,308,51
97338,391,51
97348,623,51
97358,653,51
97369,648,51
97379,210,51
97390,291,51
97400,320,51
97410,303,51
97420,319,51
97431,302,51
97441,319,51
97451,319,51
97462,309,51
97471,333,51
97481,313,51
97492,327,51
97501,336,51
97513,320,51
97523,346,51
97532,336,51
97543,337,51
97553,359,51
97564,342,51
97574,365,51
97585,372,51
97594,368,51
97605,398,51
97615,389,51
97626,408,51
97636,425,51
97646,409,51
97656,431,51
97667,413,51
97677,391,51
97687,379,51
97697,332,51
97707,324,51
97717,307,51
97728,284,51
97738,301,51
97749,282,51
97759,287,51
97769,297,51
97779,279,51
97790,301,51
97800,290,51
97810,289,51
97821,307,51
97831,284,51
97841,302,51
97851,302,51
97861,288,51
97872,306,51
97882,288,51
97892,293,51
97903,303,51
97913,285,51
97923,305,51
97934,296,51
97944,292,51
97954,310,51
97963,291,51
97974,304,51
97984,308,51
97995,293,51
98005,314,51
98015,298,51
98026,300,51
98036,315,51
98046,294,51
98057,313,51
98067,311,51
98077,302,51
98087,323,51
98098,306,51
98108,319,51
98118,323,51
98129,305,51
98138,330,51
98149,314,51
98159,316,51
98169,331,51
98179,308,51
98190,328,51
98200,325,51
98210,317,51
98221,335,51
98231,317,51
98241,326,51
98252,332,51
98262,317,51
98272,337,51
98283,324,51
98293,325,51
98303,341,51
98313,320,51
98323,339,51
98334,335,51
98344,323,51
98354,343,51
98365,325,51
98374,334,51
98384,341,51
98395,324,51
98406,347,51
98416,330,51
98426,336,51
98437,366,51
98447,339,51
98457,351,51
98467,347,51
98477,325,51
98488,345,51
98498,322,51
98508,329,51
98519,339,51
98529,316,51
98539,342,51
98549,319,51
98559,356,51
98570,611,50
98580,653,50
98590,651,50
98601,249,50
98611,257,50
98621,337,50
98632,300,50
98642,305,50
98652,319,50
98663,300,50
98673,322,50
98683,314,50
98692,313,50
98704,336,50
98713,315,50
98724,331,50
98734,336,50
98744,322,50
98754,348,50
98765,332,50
98775,342,50
98785,360,50
98795,345,50
98806,371,50
98816,371,50
98826,373,50
98837,403,50
98846,392,50
98857,413,50
98868,422,50
98878,407,50
98888,424,50
98898,391,50
98908,367,50
98919,355,50
98929,308,50
98938,309,50
98950,294,50
98960,281,50
98970,301,50
98980,281,50
98990,293,50
99001,300,50
99011,281,50
99021,305,50
99032,291,50
99042,293,50
99053,310,50
99062,285,50
99073,305,50
99082,301,50
99094,290,50
99104,309,50
99114,289,50
99124,299,50
99135,303,50
99145,285,50
99155,309,50
99165,296,50
99175,296,50
99186,312,50
99195,289,50
99206,308,50
99217,300,50
99227,291,50
99237,315,50
99247,296,50
99258,304,50
99267,311,50
99278,294,50
99289,316,50
99298,306,50
99309,306,50
99319,320,50
99329,297,50
99340,312,50
99350,312,50
99361,302,50
99371,324,50
99380,306,50
99391,314,50
99401,324,50
99412,305,50
99422,326,50
99432,317,50
99443,312,50
99452,332,50
99463,310,50
99473,326,50
99484,325,50
99494,312,50
99503,335,50
99514,318,50
99525,323,50
99534,338,50
99545,317,50
99556,334,50
99566,327,50
99575,323,50
99586,342,50
99597,323,50
99607,335,50
99617,337,50
99628,337,50
99638,361,50
99648,339,50
99658,339,50
99669,342,50
99679,318,50
99688,336,50
99698,327,50
99710,317,50
99720,338,50
99730,320,50
99741,329,50
99750,332,50
99761,451,50
99771,653,50
99781,653,50
99792,456,50
99801,215,50
99812,304,50
99823,322,50
99832,306,50
99843,299,50
99852,323,50
99863,303,50
99874,321,50
99884,329,50
99894,315,50
99904,339,50
99914,328,50
99925,332,50
99935,347,50
99945,328,50
99956,352,50
99966,350,50
99976,350,50
99986,378,50
99996,357,50
100007,365,50
100017,388,50
100028,380,50
100037,417,50
100048,414,50
100058,418,50
100069,439,50
100079,413,50
100089,420,50
100100,390,50
100110,346,50
100119,342,50
100130,300,50
100141,299,50
100150,295,50
100161,272,50
100172,294,50
100181,282,50
100192,281,50
100201,300,50
100212,280,50
100223,295,50
100233,295,50
100243,281,50
100253,303,50
100263,284,50
100274,294,50
100284,302,50
100295,281,50
100305,303,50
100315,293,50
100325,289,50
100336,307,50
100346,285,50
100356,302,50
100366,301,50
100377,286,50
100387,312,50
100397,291,50
100408,298,50
100417,309,50
100428,288,50
100438,309,50
100448,306,50
100458,298,50
100469,317,50
100479,297,50
100490,310,50
100499,313,50
100510,297,50
100520,320,50
100531,302,50
100540,308,50
100551,321,50
100561,301,50
100571,321,50
100582,314,50
100592,306,50
100603,326,50
100613,308,50
100623,324,50
100633,324,50
100643,308,50
100654,342,50
100664,339,50
100674,336,50
100685,344,50
100695,318,50
100705,329,50
100715,318,50
100726,311,50
100736,331,50
100745,311,50
100756,324,50
100767,329,50
100777,302,50
100787,377,50
100797,611,50
100808,653,50
100818,645,50
100828,190,50
100838,276,50
100849,319,50
100859,299,50
100869,318,50
100879,302,50
100890,318,50
100900,326,50
100910,310,50
100921,335,50
100931,324,50
100941,326,50
100952,347,50
100962,328,50
100972,346,50
100982,348,50
100992,341,50
101003,369,50
101013,355,50
101023,368,50
101033,382,50
101044,371,50
101054,404,50
101064,405,50
101074,416,50
101085,441,50
101095,422,50
101105,438,50
101115,425,50
101126,384,50
101136,375,50
101146,325,50
101156,310,50
101167,305,50
101177,274,50
101188,292,50
101198,278,50
101208,277,50
101218,297,50
101228,277,50
101239,293,50
101250,294,50
101259,279,50
101270,304,50
101279,286,50
101291,290,50
101301,300,50
101311,279,50
101321,301,50
101331,292,50
101341,286,50
101352,304,50
101362,282,50
101372,297,50
101383,296,50
101392,283,50
101403,306,50
101413,291,50
101423,296,50
101434,309,50
101444,288,50
101455,310,50
101464,299,50
101475,295,50
101485,316,50
101496,295,50
101505,310,50
101516,310,50
101527,297,50
101537,320,50
101546,304,50
101557,308,50
101568,320,50
101578,299,50
101588,321,50
101598,316,50
101608,310,50
101619,328,50
101629,308,50
101639,322,50
101649,326,50
101660,310,50
101670,332,50
101680,317,50
101690,320,50
101701,333,50
101710,314,50
101722,332,50
101731,327,50
101742,318,50
101752,340,50
101762,319,50
101773,330,50
101783,337,50
101793,318,50
101804,341,50
101814,337,50
101824,349,50
101834,353,50
101845,331,50
101855,342,50
101865,331,50
101875,320,50
101885,339,50
101896,319,50
101906,330,50
101916,336,50
101927,315,50
101937,333,50
101947,409,50
101958,651,50
101968,653,50
101978,582,50
101989,210,50
101999,303,50
102009,312,50
102018,316,50
102029,300,50
102040,310,50
102050,321,50
102060,303,50
102071,328,50
102080,316,50
102091,318,50
102101,338,50
102112,318,50
102122,336,50
102132,337,50
102142,330,50
102152,354,50
102163,338,50
102173,352,50
102183,365,50
102194,352,50
102203,385,50
102214,381,50
102224,389,50
102235,417,50
102245,398,50
102255,419,50
102266,420,50
102276,397,50
102286,398,50
102296,354,50
102307,333,50
102317,321,50
102327,289,50
102338,303,50
102347,288,50
102358,285,50
102367,301,50
102378,281,50
102389,296,50
102399,297,50
102409,284,50
102420,307,50
102430,289,50
102440,297,50
102450,309,50
102461,287,50
102471,310,50
102481,298,50
102491,294,50
102502,312,50
102512,292,50
102522,304,50
102533,305,50
102542,290,50
102552,312,50
102563,296,50
102574,301,50
102584,312,50
102594,294,50
102604,314,50
102615,306,50
102625,300,50
102635,322,50
102645,302,50
102656,315,50
102666,317,50
102675,303,50
102686,323,50
102697,307,50
102707,311,50
102717,326,50
102728,303,50
102738,324,50
102748,317,50
102758,308,50
102769,330,50
102779,306,50
102789,322,50
102799,328,50
102810,312,50
102820,332,50
102830,317,50
102840,321,50
102850,334,50
102861,310,50
102871,331,50
102881,324,50
102892,315,50
102902,337,50
102912,316,50
102923,330,50
102933,335,50
102943,316,50
102954,339,50
102964,325,50
102974,326,50
102984,343,50
102995,321,50
103004,337,50
103015,341,50
103025,343,50
103035,360,50
103046,334,50
103056,340,50
103066,337,50
103077,316,50
103087,336,50
103097,323,50
103107,321,50
103118,336,50
103128,317,50
103138,325,50
103148,346,50
103158,539,50
103169,653,50
103179,652,50
103189,296,50
103200,250,50
103210,316,50
103220,317,50
103231,301,50
103241,304,50
103251,321,50
103261,301,50
103271,322,50
103282,322,50
103292,310,50
103302,336,50
103312,320,50
103323,332,50
103333,343,50
103343,325,50
103354,351,50
103364,343,50
103374,342,50
103385,366,50
103395,354,50
103405,377,50
103415,385,50
103425,383,50
103436,414,50
103446,403,50
103456,418,50
103467,435,50
103477,408,50
103487,412,50
103497,378,50
103508,344,50
103517,334,50
103528,294,50
103539,301,50
103549,294,50
103559,279,50
103570,300,50
103579,284,50
103590,291,50
103600,302,50
103610,281,50
103621,304,50
103631,294,50
103641,289,50
103652,309,50
103662,287,50
103672,301,50
103682,303,50
103692,287,50
103703,310,50
103713,294,50
103723,296,50
103733,310,50
103743,288,50
103754,305,50
103764,298,50
103775,289,50
103785,310,50
103795,291,50
103806,303,50
103816,309,50
103826,291,50
103836,313,50
103846,300,50
103857,304,50
103867,318,50
103877,296,50
103888,316,50
103898,311,50
103908,300,50
103919,324,50
103928,305,50
103939,318,50
103948,322,50
103959,305,50
103970,329,50
103980,314,50
103990,315,50
104000,329,50
104010,310,50
104021,330,50
104031,324,50
104042,317,50
104051,333,50
104061,320,50
104073,347,50
104083,349,50
104093,326,50
104103,346,50
104113,320,50
104124,320,50
104134,332,50
104144,312,50
104154,330,50
104164,324,50
104174,316,50
104185,330,50
104195,322,50
104205,515,51
104215,653,51
104226,652,51
104237,314,51
104246,220,51
104257,307,51
104267,320,51
104278,295,51
104288,318,51
104298,317,51
104309,309,51
104319,337,51
104329,318,51
104339,328,51
104350,338,51
104360,321,51
104370,348,51
104380,336,51
104391,339,51
104401,362,51
104411,343,51
104421,365,51
104432,370,51
104442,366,51
104452,396,51
104462,387,51
104473,409,51
104482,431,51
104493,418,51
104504,445,51
104514,438,51
104524,425,51
104534,418,51
104544,360,51
104555,345,51
104565,318,51
104575,284,51
104586,298,51
104595,272,51
104606,276,51
104617,288,51
104627,268,51
104637,290,51
104647,283,51
104657,280,51
104667,300,51
104678,281,51
104688,296,51
104698,296,51
104708,282,51
104718,304,51
104729,285,51
104740,290,51
104750,299,51
104760,279,51
104770,300,51
104780,291,51
104791,286,51
104801,304,51
104811,282,51
104822,296,51
104831,296,51
104842,284,51
104853,306,51
104863,291,51
104873,299,51
104883,309,51
104893,286,51
104903,308,51
104914,300,51
104924,291,51
104934,312,51
104944,294,51
104955,307,51
104965,311,51
104975,297,51
104986,319,51
104996,302,51
105006,306,51
105016,322,51
105027,299,51
105037,322,51
105047,318,51
105058,310,51
105067,330,51
105078,312,51
105089,341,51
105099,346,51
105109,322,51
105119,343,51
105130,318,51
105140,315,51
105150,329,51
105161,306,51
105171,327,51
105181,320,51
105191,308,51
105201,329,51
105212,306,51
105221,448,51
105232,653,52
105243,653,52
105252,478,52
105263,192,52
105274,303,52
105283,320,52
105294,288,52
105304,308,52
105314,307,52
105325,298,52
105335,321,52
105345,305,52
105356,317,52
105366,326,52
105376,310,52
105386,334,52
105396,326,52
105406,330,52
105417,348,52
105427,331,52
105437,353,52
105447,356,52
105458,349,52
105469,379,52
105478,369,52
105489,387,52
105499,409,52
105509,399,52
105519,426,52
105530,419,52
105540,410,52
105550,411,52
105560,365,52
105571,351,52
105581,324,52
105592,293,52
105602,305,52
105612,281,52
105623,286,52
105633,298,52
105643,278,52
105653,299,52
105664,289,52
105673,285,52
105684,304,52
105694,284,52
105705,299,52
105714,300,52
105724,286,52
105735,307,52
105745,292,52
105756,297,52
105766,307,52
105777,285,52
105787,307,52
105797,298,52
105807,293,52
105818,312,52
105827,291,52
105838,305,52
105848,308,52
105859,292,52
105869,315,52
105879,297,52
105889,304,52
105900,316,52
105909,295,52
105920,314,52
105930,306,52
105940,301,52
105951,323,52
105961,302,52
105972,314,52
105981,320,52
105992,304,52
106003,326,52
106012,311,52
106022,315,52
106033,328,52
106043,307,52
