Timestamp,ECGValue,BPM
920942,341,60
920953,323,60
920963,356,60
920973,315,60
920983,326,60
920993,333,60
921004,308,60
921014,336,60
921024,317,60
921034,317,60
921044,335,60
921055,307,60
921065,472,60
921075,653,60
921086,652,60
921096,353,60
921105,202,60
921116,304,60
921126,326,60
921136,292,60
921146,323,60
921158,309,60
921168,310,60
921178,332,60
921188,307,60
921198,333,60
921208,330,60
921219,318,60
921229,351,60
921240,324,60
921250,340,60
921260,359,60
921271,334,60
921280,371,60
921291,360,60
921301,361,60
921311,395,60
921322,378,60
921331,412,60
921342,423,60
921353,414,60
921363,447,60
921373,412,60
921383,396,60
921393,374,60
921403,319,60
921414,318,60
921424,286,60
921434,271,60
921445,290,60
921455,260,60
921465,283,60
921475,281,60
921486,264,60
921497,292,60
921506,271,60
921517,282,60
921527,298,60
921537,272,60
921548,302,60
921558,288,60
921568,282,60
921578,306,60
921588,279,60
921599,297,60
921609,298,60
921619,280,60
921629,308,60
921640,284,60
921650,293,60
921661,308,60
921671,280,60
921680,308,60
921691,298,60
921701,287,60
921712,310,60
921721,287,60
921732,307,60
921742,308,60
921752,287,60
921763,317,60
921773,297,60
921783,303,60
921793,322,60
921803,293,60
921815,320,60
921825,309,60
921835,297,60
921845,330,60
921855,304,60
921866,319,60
921876,322,60
921886,310,60
921897,350,60
921907,324,60
921917,327,60
921927,339,60
921938,303,60
921948,323,60
921958,314,60
921968,304,60
921978,334,60
921989,305,60
922000,324,60
922009,319,60
922019,366,60
922030,648,61
922041,653,61
922050,574,61
922061,209,61
922071,265,61
922081,321,61
922092,304,61
922101,291,61
922112,322,61
922122,301,61
922132,313,61
922143,324,61
922153,304,61
922164,335,61
922174,320,61
922183,323,61
922194,345,61
922204,318,61
922215,348,61
922225,344,61
922235,337,61
922245,372,61
922256,352,61
922266,374,61
922276,393,61
922287,381,61
922297,416,61
922307,406,61
922318,411,61
922328,430,61
922338,390,61
922347,384,61
922358,350,61
922368,308,61
922379,317,61
922389,284,61
922399,291,61
922410,295,61
922420,267,61
922430,298,61
922440,281,61
922450,284,61
922461,311,61
922471,280,61
922482,300,61
922492,299,61
922502,286,61
922513,316,61
922523,290,61
922533,303,61
922543,317,61
922554,288,61
922564,318,61
922573,304,61
922584,299,61
922595,321,61
922605,292,61
922615,312,61
922625,310,61
922636,293,61
922645,323,61
922656,300,61
922667,307,61
922676,320,61
922687,296,61
922697,325,61
922707,310,61
922718,306,61
922727,328,61
922738,301,61
922749,320,61
922759,321,61
922769,302,61
922780,333,61
922789,312,61
922799,320,61
922809,336,61
922820,309,61
922831,335,61
922841,323,61
922851,317,61
922861,342,61
922871,313,61
922881,333,61
922892,336,61
922903,313,61
922912,344,61
922923,321,61
922934,325,61
922943,341,61
922953,316,61
922963,346,61
922974,337,61
922985,327,61
922995,354,61
923005,323,61
923016,337,61
923025,347,61
923035,335,61
923045,365,61
923056,343,61
923067,341,61
923077,350,61
923087,317,61
923097,342,61
923108,337,61
923118,324,61
923128,353,61
923139,324,61
923149,328,61
923159,387,61
923170,608,60
923179,653,60
923190,647,60
923200,228,60
923210,300,60
923221,315,60
923231,320,60
923241,313,60
923252,302,60
923262,330,60
923273,305,60
923282,323,60
923292,334,60
923302,310,60
923313,344,60
923323,323,60
923333,327,60
923344,352,60
923354,325,60
923364,353,60
923375,353,60
923385,341,60
923395,377,60
923406,357,60
923415,379,60
923426,398,60
923436,379,60
923447,417,60
923456,408,60
923466,408,60
923478,424,60
923487,374,60
923498,369,60
923508,338,60
923518,299,60
923528,314,60
923539,283,60
923549,289,60
923559,297,60
923570,273,60
923580,302,60
923591,286,60
923600,284,60
923611,305,60
923622,276,60
923631,300,60
923642,301,60
923652,284,60
923662,311,60
923673,287,60
923683,300,60
923693,310,60
923703,280,60
923713,309,60
923723,296,60
923734,292,60
923744,314,60
923755,287,60
923764,309,60
923775,309,60
923785,290,60
923795,317,60
923806,298,60
923816,304,60
923826,318,60
923836,294,60
923847,322,60
923857,305,60
923868,299,60
923877,325,60
923888,294,60
923899,318,60
923909,321,60
923919,299,60
923929,329,60
923939,305,60
923949,318,60
923960,329,60
923970,304,60
923980,331,60
923990,317,60
924001,309,60
924011,336,60
924021,309,60
924032,329,60
924042,332,60
924052,311,60
924062,339,60
924073,316,60
924083,322,60
924093,340,60
924103,314,60
924114,338,60
924124,329,60
924134,320,60
924145,350,60
924155,323,60
924165,335,60
924175,342,60
924186,329,60
924196,364,60
924206,337,60
924217,337,60
924227,350,60
924237,310,60
924247,339,60
924257,330,60
924268,320,60
924279,348,60
924288,320,60
924299,333,60
924308,329,60
924319,445,60
924330,652,58
924339,653,58
924350,423,58
924360,222,58
924371,295,58
924381,327,58
924391,310,58
924402,300,58
924411,333,58
924421,308,58
924432,326,58
924442,335,58
924452,312,58
924462,345,58
924473,327,58
924483,330,58
924493,355,58
924504,328,58
924515,356,58
924524,354,58
924535,345,58
924545,382,58
924555,361,58
924565,383,58
924575,403,58
924586,393,58
924596,429,58
924607,417,58
924616,421,58
924627,441,58
924638,395,58
924648,391,58
924658,351,58
924669,307,58
924678,318,58
924688,276,58
924698,280,58
924709,286,58
924720,260,58
924729,292,58
924740,277,58
924751,274,58
924761,297,58
924770,269,58
924781,293,58
924791,291,58
924801,274,58
924811,305,58
924822,282,58
924832,297,58
924843,307,58
924853,281,58
924863,306,58
924874,291,58
924884,287,58
924893,310,58
924905,280,58
924914,302,58
924925,300,58
924936,286,58
924945,317,58
924956,290,58
924966,297,58
924976,312,58
924987,288,58
924996,315,58
925007,301,58
925017,297,58
925027,321,58
925037,289,58
925048,311,58
925058,314,58
925069,295,58
925079,328,58
925089,303,58
925099,310,58
925110,324,58
925120,302,58
925130,329,58
925140,317,58
925151,311,58
925161,334,58
925171,305,58
925182,324,58
925192,326,58
925202,308,58
925212,337,58
925223,314,58
925233,334,58
925243,356,58
925253,321,58
925264,343,58
925274,327,58
925284,312,58
925294,337,58
925305,307,58
925314,325,58
925325,328,58
925335,309,58
925346,336,58
925356,308,58
925366,442,58
925377,652,57
925387,653,57
925397,410,57
925407,203,57
925417,295,57
925428,325,57
925439,289,57
925448,310,57
925459,315,57
925469,297,57
925479,325,57
925490,310,57
925500,314,57
925510,333,57
925521,308,57
925531,339,57
925540,334,57
925551,325,57
925561,355,57
925572,335,57
925582,354,57
925592,366,57
925603,350,57
925613,390,57
925623,382,57
925633,393,57
925643,422,57
925654,403,57
925664,436,57
925674,425,57
925685,392,57
925694,390,57
925705,333,57
925715,318,57
925725,307,57
925735,271,57
925745,294,57
925757,275,57
925767,272,57
925777,295,57
925787,265,57
925797,292,57
925808,290,57
925818,274,57
925827,305,57
925839,281,57
925849,294,57
925859,301,57
925870,280,57
925879,306,57
925890,293,57
925900,290,57
925910,311,57
925921,282,57
925931,303,57
925941,300,57
925952,284,57
925962,315,57
925972,289,57
925982,300,57
925993,313,57
926003,285,57
926013,316,57
926023,302,57
926034,297,57
926043,323,57
926054,294,57
926064,316,57
926075,313,57
926085,295,57
926094,328,57
926105,304,57
926115,313,57
926125,328,57
926135,303,57
926146,329,57
926157,317,57
926167,309,57
926177,331,57
926188,304,57
926198,324,57
926208,323,57
926218,305,57
926228,335,57
926239,312,57
926249,321,57
926259,337,57
926270,309,57
926280,340,57
926289,326,57
926301,316,57
926311,344,57
926321,319,57
926331,333,57
926341,336,57
926351,325,57
926362,364,57
926372,332,57
926382,334,57
926393,346,57
926403,314,57
926413,337,57
926423,326,57
926434,319,57
926444,341,57
926454,317,57
926464,330,57
926475,328,57
926485,431,57
926495,652,56
926506,653,56
926515,488,56
926526,222,56
926537,297,56
926547,326,56
926557,307,56
926567,299,56
926578,326,56
926588,300,56
926598,320,56
926608,329,56
926618,306,56
926629,336,56
926639,324,56
926649,325,56
926659,352,56
926669,324,56
926680,351,56
926690,348,56
926700,338,56
926711,370,56
926721,351,56
926731,373,56
926741,390,56
926751,377,56
926762,416,56
926773,406,56
926783,412,56
926793,435,56
926803,391,56
926814,387,56
926824,353,56
926834,314,56
926845,322,56
926855,286,56
926865,292,56
926875,298,56
926885,272,56
926896,299,56
926906,287,56
926916,285,56
926927,307,56
926937,280,56
926947,302,56
926957,298,56
926967,280,56
926978,312,56
926987,289,56
926999,297,56
927009,305,56
927019,281,56
927030,310,56
927040,295,56
927050,290,56
927060,313,56
927070,285,56
927081,306,56
927090,306,56
927101,283,56
927112,317,56
927121,293,56
927132,303,56
927142,316,56
927153,289,56
927163,317,56
927173,305,56
927183,299,56
927193,326,56
927204,299,56
927214,316,56
927224,316,56
927235,295,56
927245,323,56
927255,301,56
927266,307,56
927275,322,56
927286,294,56
927296,323,56
927306,310,56
927317,303,56
927327,328,56
927338,301,56
927347,321,56
927358,326,56
927369,305,56
927379,341,56
927389,318,56
927399,322,56
927409,340,56
927420,312,56
927430,341,56
927440,332,56
927450,321,56
927460,347,56
927471,320,56
927481,339,56
927491,341,56
927501,319,56
927511,349,56
927522,345,56
927532,353,56
927542,366,56
927552,332,56
927563,354,56
927573,338,56
927583,324,56
927593,353,56
927604,325,56
927614,339,56
927624,347,56
927635,318,56
927645,356,56
927655,515,56
927666,653,56
927676,653,56
927687,363,56
927697,241,56
927707,329,56
927717,303,56
927727,324,56
927737,304,56
927748,316,56
927758,327,56
927768,306,56
927778,333,56
927789,317,56
927800,322,56
927809,342,56
927820,317,56
927830,348,56
927840,343,56
927851,334,56
927860,369,56
927871,347,56
927882,365,56
927891,384,56
927902,366,56
927912,405,56
927922,398,56
927932,407,56
927943,440,56
927953,416,56
927963,437,56
927974,420,56
927984,370,56
927994,368,56
928005,317,56
928014,307,56
928024,305,56
928035,274,56
928045,302,56
928056,285,56
928067,282,56
928077,304,56
928086,274,56
928096,298,56
928107,300,56
928117,282,56
928128,313,56
928137,289,56
928148,298,56
928158,311,56
928169,284,56
928178,308,56
928189,298,56
928199,291,56
928210,315,56
928220,285,56
928230,307,56
928240,305,56
928251,286,56
928261,316,56
928271,291,56
928282,298,56
928292,315,56
928302,291,56
928312,314,56
928323,304,56
928334,302,56
928343,325,56
928354,297,56
928364,317,56
928374,315,56
928384,299,56
928395,327,56
928405,309,56
928415,312,56
928426,327,56
928435,300,56
928446,328,56
928456,315,56
928466,306,56
928477,337,56
928487,310,56
928497,324,56
928508,332,56
928518,310,56
928528,336,56
928538,315,56
928548,335,56
928558,351,56
928569,317,56
928579,339,56
928589,322,56
928600,310,56
928610,335,56
928620,309,56
928631,325,56
928640,333,56
928651,309,56
928661,330,56
928672,338,56
928682,563,55
928693,653,55
928703,647,55
928712,222,55
928723,258,55
928734,301,55
928744,322,55
928754,292,55
928764,312,55
928774,320,55
928784,297,55
928795,335,55
928805,317,55
928816,319,55
928826,341,55
928836,315,55
928846,344,55
928857,342,55
928867,329,55
928877,366,55
928888,340,55
928898,360,55
928908,376,55
928918,362,55
928928,402,55
928939,397,55
928949,408,55
928959,440,55
928969,420,55
928980,444,55
928990,430,55
929001,387,55
929011,377,55
929021,320,55
929032,303,55
929041,299,55
929051,263,55
929063,292,55
929072,274,55
929082,269,55
929093,290,55
929103,264,55
929113,287,55
929123,287,55
929133,269,55
929144,300,55
929154,274,55
929165,288,55
929175,301,55
929185,274,55
929195,305,55
929205,291,55
929215,286,55
929226,309,55
929237,279,55
929246,299,55
929256,302,55
929267,282,55
929277,312,55
929287,287,55
929298,296,55
929308,310,55
929319,282,55
929329,311,55
929339,300,55
929350,291,55
929360,316,55
929370,292,55
929380,311,55
929390,314,55
929401,292,55
929411,322,55
929421,299,55
929432,306,55
929441,322,55
929452,295,55
929462,321,55
929472,311,55
929483,303,55
929493,327,55
929503,300,55
929514,319,55
929523,321,55
929534,301,55
929544,332,55
929555,311,55
929565,316,55
929575,331,55
929585,309,55
929596,351,55
929606,339,55
929616,324,55
929626,349,55
929637,313,55
929647,324,55
929657,329,55
929668,307,55
929678,332,55
929688,314,55
929699,319,55
929708,332,55
929719,312,55
929729,503,55
929740,653,55
929749,653,55
929759,369,55
929770,203,55
929780,320,55
929791,318,55
929800,289,55
929812,321,55
929822,305,55
929832,307,55
929842,330,55
929852,300,55
929862,328,55
929872,325,55
929883,314,55
929893,347,55
929904,320,55
929914,335,55
929924,347,55
929934,328,55
929945,361,55
929955,351,55
929965,357,55
929975,388,55
929985,367,55
929996,407,55
930006,413,55
930016,404,55
930027,440,55
930037,408,55
930047,403,55
930058,384,55
930068,329,55
930078,332,55
930088,297,55
930098,284,55
930109,302,55
930119,271,55
930129,294,55
930139,290,55
930150,272,55
930160,304,55
930171,282,55
930180,293,55
930191,309,55
930201,283,55
930212,311,55
930222,297,55
930232,294,55
930242,318,55
930252,291,55
930263,310,55
930273,308,55
930283,287,55
930294,316,55
930304,290,55
930314,296,55
930324,312,55
930335,287,55
930345,317,55
930355,303,55
930365,296,55
930376,324,55
930386,294,55
930396,312,55
930407,315,55
930417,295,55
930428,328,55
930437,304,55
930448,313,55
930458,329,55
930468,299,55
930478,328,55
930488,319,55
930499,310,55
930509,337,55
930519,309,55
930530,329,55
930540,331,55
930550,308,55
930561,340,55
930571,317,55
930581,323,55
930591,338,55
930602,312,55
930612,338,55
930621,328,55
930633,319,55
930643,345,55
930653,318,55
930664,331,55
930673,337,55
930684,313,55
930695,347,55
930704,322,55
930714,325,55
930724,343,55
930735,315,55
930745,341,55
930755,330,55
930766,321,55
930776,349,55
930786,321,55
930797,336,55
930807,344,55
930818,322,55
930828,350,55
930838,329,55
930848,344,55
930858,372,55
930868,331,55
930879,357,55
930889,345,55
930899,324,55
930909,349,55
930920,318,55
930931,331,55
930940,340,55
930951,319,55
930960,342,55
930972,315,55
930982,406,55
930992,652,55
931003,653,55
931012,584,55
931023,216,55
931033,293,55
931043,339,55
931054,296,55
931064,308,55
931073,319,55
931085,299,55
931095,333,55
931105,318,55
931114,317,55
931125,342,55
931136,314,55
931145,339,55
931156,338,55
931166,324,55
931176,357,55
931187,336,55
931197,350,55
931208,364,55
931218,346,55
931228,384,55
931238,374,55
931248,381,55
931259,417,55
931269,396,55
931279,426,55
931289,425,55
931300,403,55
931310,410,55
931320,358,55
931330,339,55
931340,327,55
931351,284,55
931361,302,55
931372,286,55
931381,278,55
931392,302,55
931403,274,55
931413,295,55
931423,296,55
931433,281,55
931443,308,55
931454,284,55
931464,292,55
931474,307,55
931484,279,55
931495,306,55
931505,292,55
931515,284,55
931526,311,55
931536,279,55
931546,298,55
931557,300,55
931566,281,55
931577,312,55
931588,287,55
931597,292,55
931608,313,55
931618,285,55
931628,311,55
931639,300,55
931648,290,55
931659,318,55
931669,290,55
931679,310,55
931689,316,55
931700,293,55
931710,323,55
931721,305,55
931731,308,55
931741,325,55
931752,301,55
931762,327,55
931772,316,55
931782,306,55
931793,336,55
931803,306,55
931814,321,55
931823,330,55
931834,311,55
931844,338,55
931854,316,55
931865,320,55
931874,340,55
931885,314,55
931895,338,55
931905,329,55
931916,315,55
931926,343,55
931936,318,55
931947,332,55
931957,334,55
931967,315,55
931977,342,55
931987,322,55
931997,330,55
932008,349,55
932018,315,55
932029,339,55
932039,346,55
932049,345,55
932060,363,55
932069,336,55
932080,345,55
932090,343,55
932100,316,55
932110,342,55
932121,325,55
932132,325,55
932141,351,55
932152,317,55
932163,329,55
932172,417,55
932183,651,54
932193,653,54
932203,547,54
932214,191,54
932224,306,54
932234,303,54
932245,322,54
932254,310,54
932264,308,54
932275,333,54
932285,307,54
932295,327,54
932305,329,54
932315,314,54
932326,342,54
932336,325,54
932346,340,54
932357,355,54
932367,334,54
932377,364,54
932388,353,54
932399,355,54
932408,388,54
932418,368,54
932429,396,54
932439,409,54
932450,404,54
932459,443,54
932470,424,54
932481,437,54
932491,439,54
932501,387,54
932511,379,54
932521,335,54
932532,299,54
932541,305,54
932551,270,54
932562,285,54
932573,285,54
932583,263,54
932593,295,54
932604,270,54
932614,277,54
932624,296,54
932635,268,54
932644,300,54
932655,291,54
932665,280,54
932675,311,54
932686,282,54
932696,302,54
932706,304,54
932716,278,54
932727,308,54
932737,287,54
932747,291,54
932757,306,54
932768,278,54
932777,306,54
932788,295,54
932798,287,54
932808,314,54
932819,284,54
932830,300,54
932840,308,54
932850,288,54
932860,317,54
932870,296,54
932880,299,54
932890,318,54
932901,288,54
932912,317,54
932922,310,54
932932,296,54
932943,322,54
932953,297,54
932963,312,54
932973,320,54
932983,298,54
932994,327,54
933004,308,54
933014,309,54
933024,328,54
933035,301,54
933045,328,54
933055,320,54
933066,309,54
933076,350,54
933086,328,54
933097,335,54
933107,339,54
933117,306,54
933128,335,54
933137,315,54
933147,313,54
933158,333,54
933168,304,54
933178,331,54
933188,321,54
933199,310,54
933209,505,53
933219,652,53
933230,652,53
933240,353,53
933250,201,53
933260,326,53
933271,309,53
933281,298,53
933291,323,53
933301,297,53
933311,320,53
933322,320,53
933332,305,53
933343,339,53
933353,315,53
933363,328,53
933373,341,53
933383,316,53
933393,351,53
933404,343,53
933414,339,53
933425,368,53
933434,349,53
933446,376,53
933455,384,53
933466,378,53
933476,419,53
933486,405,53
933497,422,53
933507,435,53
933517,407,53
933528,420,53
933538,376,53
933548,339,53
933559,335,53
933569,287,53
933579,297,53
933589,293,53
933599,270,53
933610,297,53
933620,274,53
933630,281,53
933640,299,53
933651,270,53
933661,297,53
933670,285,53
933682,283,53
933692,307,53
933702,281,53
933712,298,53
933722,302,53
933733,281,53
933743,311,53
933753,290,53
933764,293,53
933773,309,53
933784,283,53
933795,309,53
933805,298,53
933815,291,53
933825,317,53
933835,289,53
933846,306,53
933856,311,53
933867,291,53
933876,322,53
933887,304,53
933897,306,53
933906,321,53
933917,294,53
933928,322,53
933938,313,53
933949,304,53
933959,327,53
933969,300,53
933979,317,53
933989,323,53
934000,304,53
934010,332,53
934020,313,53
934031,313,53
934040,337,53
934051,305,53
934061,331,53
934071,325,53
934082,311,53
934092,341,53
934102,314,53
934113,331,53
934123,337,53
934133,312,53
934143,347,53
934154,328,53
934164,327,53
934174,349,53
934185,320,53
934195,342,53
934205,339,53
934215,323,53
934226,346,53
934236,318,53
934246,333,53
934256,342,53
934266,318,53
934276,342,53
934287,328,53
934297,341,53
934307,366,53
934317,332,53
934327,350,53
934339,341,53
934349,319,53
934359,344,53
934370,320,53
934380,330,53
934390,337,53
934400,312,53
934410,338,53
934421,332,53
934431,500,53
934441,653,53
934451,653,53
934461,352,53
934471,237,53
934482,308,53
934492,322,53
934503,289,53
934513,301,53
934523,316,53
934534,294,53
934544,326,53
934554,312,53
934564,311,53
934575,334,53
934584,308,53
934595,330,53
934605,336,53
934616,320,53
934626,351,53
934637,331,53
934646,345,53
934656,365,53
934668,340,53
934678,379,53
934688,377,53
934698,384,53
934708,415,53
934719,393,53
934728,414,53
934738,419,53
934749,391,53
934759,396,53
934770,344,53
934780,324,53
934790,322,53
934800,277,53
934810,297,53
934821,285,53
934831,276,53
934841,303,53
934851,274,53
934862,296,53
934872,299,53
934882,277,53
934892,309,53
934903,288,53
934913,292,53
934923,309,53
934933,281,53
934944,306,53
934955,295,53
934965,286,53
934974,311,53
934985,281,53
934995,300,53
935005,304,53
935016,284,53
935026,317,53
935036,296,53
935046,295,53
935057,313,53
935067,286,53
935077,313,53
935088,306,53
935098,295,53
935108,326,53
935118,298,53
935128,314,53
935139,321,53
935149,297,53
935160,326,53
935170,309,53
935180,313,53
935191,330,53
935201,304,53
935211,326,53
935221,323,53
935232,308,53
935242,336,53
935252,310,53
935262,321,53
935273,332,53
935283,308,53
935293,337,53
935303,322,53
935313,323,53
935323,341,53
935334,311,53
935344,336,53
935354,334,53
935364,316,53
935375,345,53
935385,320,53
935396,331,53
935406,341,53
935417,317,53
935426,345,53
935437,329,53
935447,321,53
935458,347,53
935468,319,53
935478,338,53
935488,342,53
935498,340,53
935509,370,53
935519,340,53
935529,345,53
935540,348,53
935550,320,53
935560,348,53
935570,329,53
935580,327,53
935591,348,53
935602,324,53
935611,330,53
935621,373,53
935632,599,53
935641,653,53
935653,649,53
935663,226,53
935673,283,53
935684,307,53
935694,326,53
935703,311,53
935714,307,53
935724,331,53
935734,307,53
935745,333,53
935754,334,53
935765,313,53
935775,345,53
935786,322,53
935796,333,53
935806,354,53
935817,331,53
935827,361,53
935837,350,53
935847,350,53
935857,381,53
935868,358,53
935879,388,53
935888,405,53
935899,397,53
935909,435,53
935919,419,53
935930,430,53
935940,442,53
935951,392,53
935961,387,53
935970,345,53
935981,305,53
935991,314,53
936002,268,53
936012,280,53
936021,282,53
936033,262,53
936042,288,53
936053,269,53
936063,276,53
936073,293,53
936084,266,53
936094,295,53
936104,292,53
936115,280,53
936125,306,53
936135,281,53
936145,297,53
936155,302,53
936165,278,53
936175,305,53
936187,286,53
936196,286,53
936206,304,53
936218,278,53
936227,302,53
936237,295,53
936247,285,53
936259,311,53
936269,285,53
936279,300,53
936289,310,53
936300,288,53
936309,315,53
936320,292,53
936330,297,53
936340,319,53
936351,289,53
936361,314,53
936371,308,53
936381,296,53
936392,330,53
936402,297,53
936413,313,53
936422,322,53
936433,296,53
936443,328,53
936453,312,53
936463,311,53
936474,335,53
936484,307,53
936494,329,53
936504,325,53
936514,311,53
936525,339,53
936536,312,53
936545,325,53
936556,332,53
936567,315,53
936576,358,53
936587,336,53
936597,332,53
936607,350,53
936617,314,53
936627,337,53
936638,333,53
936649,315,53
936659,345,53
936669,318,53
936679,331,53
936688,330,53
936700,368,53
936709,650,52
936720,653,52
936730,610,52
936740,220,52
936751,267,52
936761,328,52
936771,316,52
936782,299,52
936792,329,52
936803,307,52
936812,317,52
936822,335,52
936832,308,52
936843,340,52
936853,331,52
936864,328,52
936874,355,52
936884,330,52
936894,351,52
936905,360,52
936915,344,52
936925,380,52
936936,362,52
936946,374,52
936956,400,52
936967,383,52
936976,427,52
936986,417,52
936997,418,52
937007,446,52
937017,410,52
937028,405,52
937038,376,52
937048,323,52
937059,324,52
937069,286,52
937079,282,52
937089,294,52
937099,262,52
937110,291,52
937120,283,52
937130,274,52
937140,298,52
937151,274,52
937161,296,52
937172,302,52
937182,280,52
937192,312,52
937203,292,52
937213,295,52
937223,311,52
937233,284,52
937244,307,52
937254,295,52
937264,284,52
937274,315,52
937284,286,52
937295,301,52
937305,308,52
937316,282,52
937326,313,52
937336,294,52
937347,296,52
937357,315,52
937366,288,52
937377,315,52
937388,306,52
937398,289,52
937408,321,52
937418,294,52
937429,308,52
937438,316,52
937449,293,52
937459,325,52
937469,304,52
937480,306,52
937490,328,52
937500,298,52
937511,322,52
937520,315,52
937531,304,52
937542,332,52
937551,307,52
937562,321,52
937572,330,52
937582,306,52
937593,335,52
937603,315,52
937613,318,52
937623,337,52
937633,307,52
937644,335,52
937654,328,52
937665,310,52
937674,341,52
937685,318,52
937695,331,52
937706,337,52
937716,311,52
937726,339,52
937736,322,52
937747,325,52
937756,344,52
937768,314,52
937777,342,52
937788,354,52
937798,333,52
937809,356,52
937818,330,52
937829,328,52
937839,335,52
937850,310,52
937859,339,52
937869,324,52
937880,323,52
937890,345,52
937901,308,52
937911,363,52
937921,578,52
937932,653,52
937941,652,52
937952,268,52
937962,255,52
937972,337,52
937983,290,52
937993,315,52
938003,303,52
938014,300,52
938023,327,52
938034,301,52
938044,326,52
938054,328,52
938065,309,52
938075,342,52
938086,323,52
938095,334,52
938105,352,52
938116,332,52
938126,356,52
938136,350,52
938146,349,52
938157,378,52
938168,359,52
938178,388,52
938188,397,52
938198,388,52
938208,424,52
938219,406,52
938229,411,52
938239,414,52
938250,363,52
938260,361,52
938270,324,52
938281,293,52
938290,306,52
938300,272,52
938311,287,52
938322,288,52
938331,270,52
938342,301,52
938353,279,52
938362,282,52
938373,304,52
938383,274,52
938394,300,52
938403,292,52
938414,285,52
938424,310,52
938434,276,52
938445,296,52
938455,295,52
938465,277,52
938476,311,52
938486,290,52
938496,294,52
938506,313,52
938516,281,52
938527,309,52
938537,301,52
938547,289,52
938558,317,52
938567,290,52
938578,307,52
938589,312,52
938599,290,52
938609,321,52
938619,300,52
938630,306,52
938640,325,52
938650,299,52
938661,325,52
938670,316,52
938681,302,52
938691,328,52
938700,305,52
938712,322,52
938722,328,52
938732,304,52
938743,336,52
938752,316,52
938763,316,52
938773,338,52
938784,310,52
938794,336,52
938804,326,52
938814,314,52
938824,342,52
938834,317,52
938845,328,52
938854,340,52
938865,313,52
938876,343,52
938886,328,52
938896,324,52
938907,349,52
938917,319,52
938927,338,52
938937,345,52
938948,346,52
938958,368,52
938968,336,52
938979,343,52
938989,345,52
938999,319,52
939009,345,52
939020,327,52
939030,323,52
939040,346,52
939050,316,52
939061,326,52
939070,429,52
939082,652,52
939091,653,52
939102,519,52
939112,197,52
939122,312,52
939132,301,52
939143,323,52
939153,309,52
939163,303,52
939173,330,52
939184,300,52
939194,328,52
939204,331,52
939215,315,52
939225,346,52
939236,325,52
939246,335,52
939256,354,52
939266,331,52
939276,359,52
939286,349,52
939297,349,52
939307,379,52
939317,358,52
939327,390,52
939338,402,52
939349,394,52
939358,438,52
939369,419,52
939378,428,52
939388,435,52
939399,385,52
939410,381,52
939420,335,52
939430,303,52
939440,311,52
939451,271,52
939461,286,52
939471,285,52
939482,265,52
939492,297,52
939502,276,52
939513,280,52
939523,301,52
939533,274,52
939543,302,52
939553,291,52
939564,282,52
939573,308,52
939584,282,52
939595,303,52
939605,304,52
939615,283,52
939625,313,52
939635,292,52
939645,295,52
939656,313,52
939666,283,52
939675,314,52
939686,302,52
939697,289,52
939707,317,52
939718,292,52
939727,306,52
939738,310,52
939749,291,52
939758,320,52
939769,297,52
939780,303,52
939789,319,52
939799,290,52
939809,317,52
939820,308,52
939830,296,52
939841,325,52
939851,299,52
939861,316,52
939871,317,52
939882,296,52
939892,326,52
939902,308,52
939913,312,52
939923,332,52
939933,303,52
939944,331,52
939954,323,52
939964,313,52
939974,340,52
939984,310,52
939995,333,52
940005,355,52
940015,326,52
940026,354,52
940036,328,52
940046,316,52
940057,336,52
940066,308,52
940077,334,52
940087,328,52
940097,312,52
940108,344,52
940117,304,52
940128,365,52
940139,624,52
940148,653,52
940159,645,52
940169,214,52
940179,266,52
940189,334,52
940200,291,52
940211,316,52
940221,315,52
940231,302,52
940242,333,52
940251,307,52
940262,325,52
940272,337,52
940281,311,52
940293,344,52
940303,333,52
940313,331,52
940323,356,52
940333,332,52
940344,358,52
940354,359,52
940364,349,52
940374,388,52
940385,370,52
940395,393,52
940406,413,52
940416,397,52
940426,432,52
940436,421,52
940446,414,52
940457,419,52
940467,359,52
940478,350,52
940487,323,52
940497,286,52
940509,304,52
940519,276,52
940528,284,52
940539,297,52
940549,273,52
940560,302,52
940569,286,52
940580,282,52
940590,309,52
940601,281,52
940610,303,52
940620,303,52
940631,285,52
940642,315,52
940652,291,52
940662,298,52
940672,310,52
940682,285,52
940693,311,52
940703,295,52
940713,288,52
940724,312,52
940734,286,52
940744,307,52
940754,310,52
940764,291,52
940775,317,52
940785,299,52
940795,301,52
940806,319,52
940815,290,52
940827,317,52
940836,307,52
940847,302,52
940857,328,52
940867,299,52
940877,320,52
940888,323,52
940898,300,52
940909,333,52
940919,310,52
940929,316,52
940939,330,52
940949,305,52
940960,333,52
940970,323,52
940980,318,52
940991,340,52
941001,313,52
941011,331,52
941022,337,52
941032,314,52
941042,344,52
941052,322,52
941063,325,52
941072,345,52
941083,316,52
941093,343,52
941103,330,52
941114,323,52
941124,347,52
941133,321,52
941144,339,52
941155,343,52
941165,317,52
941176,363,52
941185,350,52
941196,341,52
941206,359,52
941217,324,52
941227,342,52
941236,334,52
941248,324,52
941257,348,52
941268,323,52
941278,338,52
941288,338,52
941298,316,52
941308,493,52
941319,653,51
941330,653,51
941339,453,51
941350,201,51
941360,332,51
941370,319,51
941381,295,51
941391,327,51
941401,303,51
941412,321,51
941422,328,51
941432,308,51
941442,343,51
941452,326,51
941462,326,51
941472,349,51
941483,324,51
941493,348,51
941504,348,51
941514,340,51
941524,370,51
941534,348,51
941545,366,51
941555,379,51
941566,365,51
941576,405,51
941585,399,51
941596,405,51
941607,433,51
941617,402,51
941627,420,51
941637,397,51
941647,351,51
941658,353,51
941668,306,51
941679,302,51
941689,304,51
941699,276,51
941709,305,51
941720,288,51
941730,283,51
941740,307,51
941750,276,51
941760,301,51
941770,302,51
941781,288,51
941791,314,51
941802,285,51
941812,298,51
941822,309,51
941832,282,51
941842,310,51
941853,294,51
941863,290,51
941874,316,51
941884,280,51
941894,299,51
941903,303,51
941914,284,51
941925,314,51
941936,291,51
941945,300,51
941956,313,51
941966,286,51
941976,315,51
941986,303,51
941996,297,51
942007,323,51
942018,295,51
942027,314,51
942037,315,51
942048,296,51
942058,329,51
942068,307,51
942078,311,51
942090,324,51
942099,300,51
942109,328,51
942119,314,51
942130,306,51
942141,335,51
942151,306,51
942161,324,51
942171,325,51
942181,306,51
942191,336,51
942202,311,51
942212,319,51
942222,337,51
942232,309,51
942242,333,51
942253,325,51
942264,311,51
942274,340,51
942284,314,51
942293,332,51
942305,334,51
942315,324,51
942325,366,51
942335,337,51
942345,336,51
942356,348,51
942367,314,51
942376,339,51
942386,327,51
942396,314,51
942407,345,51
942417,315,51
942427,329,51
942437,328,51
942448,412,51
942458,652,52
942468,653,52
942478,512,52
942489,210,52
942500,285,52
942510,325,52
942520,309,52
942530,298,52
942541,328,52
942551,302,52
942561,321,52
942572,331,52
942581,310,52
942592,343,52
942602,327,52
942612,328,52
942622,347,52
942632,323,52
942643,350,52
942654,349,52
942663,340,52
942674,374,52
942685,352,52
942694,376,52
942705,395,52
942715,384,52
942726,427,52
942736,411,52
942746,419,52
942757,445,52
942767,409,52
942777,412,52
942787,370,52
942798,332,52
942808,328,52
942818,284,52
942827,290,52
942838,291,52
942849,264,52
942859,292,52
942869,274,52
942880,276,52
942889,301,52
942900,273,52
942910,297,52
942920,291,52
942931,282,52
942941,309,52
942951,284,52
942961,296,52
942971,305,52
942982,282,52
942993,311,52
943003,292,52
943013,289,52
943023,310,52
943033,281,52
943043,302,52
943053,301,52
943064,282,52
943074,312,52
943084,288,52
943095,297,52
943105,311,52
943115,286,52
943126,315,52
943136,300,52
943146,300,52
943157,319,52
943166,290,52
943177,313,52
943187,311,52
943198,296,52
943207,322,52
943217,302,52
943228,310,52
943238,321,52
943249,299,52
943260,327,52
943269,308,52
943280,309,52
943290,335,52
943300,304,52
943311,324,52
943321,339,52
943330,327,52
943342,348,52
943351,326,52
943362,321,52
943372,329,52
943382,301,52
943392,329,52
943402,316,52
943413,312,52
943424,336,52
943434,303,52
943444,321,52
943454,460,52
943465,652,53
943475,653,53
943485,395,53
943495,203,53
943505,315,53
943516,292,53
943527,315,53
943536,302,53
943547,301,53
943557,330,53
943567,302,53
943577,321,53
943587,325,53
943598,307,53
943609,343,53
943618,323,53
943629,331,53
943639,348,53
943650,325,53
943660,360,53
943670,353,53
943680,349,53
943691,381,53
943701,361,53
943711,393,53
943721,407,53
943731,394,53
943741,432,53
943752,416,53
943762,415,53
943773,417,53
943783,361,53
943793,359,53
943803,320,53
943814,290,53
943824,301,53
943834,267,53
943845,284,53
943854,282,53
943865,262,53
943876,293,53
943886,270,53
943896,279,53
943906,298,53
943916,272,53
943927,297,53
943937,293,53
943947,283,53
943957,309,53
943968,283,53
943978,302,53
943987,301,53
943999,276,53
944009,307,53
944018,290,53
944030,292,53
944039,309,53
944050,281,53
944060,311,53
944070,303,53
944080,289,53
944090,319,53
944102,295,53
944111,307,53
944122,314,53
944132,294,53
944141,324,53
944152,304,53
944163,306,53
944173,327,53
944183,297,53
944194,324,53
944204,317,53
944214,303,53
944224,331,53
944235,304,53
944245,317,53
944255,328,53
944266,306,53
944276,335,53
944285,314,53
944296,317,53
944306,338,53
944317,310,53
944327,337,53
944337,333,53
944348,312,53
944358,341,53
944368,313,53
944379,329,53
944388,338,53
944399,314,53
944408,343,53
944419,327,53
944429,326,53
944439,345,53
944450,315,53
944460,335,53
944470,338,53
944481,336,53
944490,366,53
944501,333,53
944512,342,53
944522,343,53
944533,318,53
944543,343,53
944552,323,53
944563,322,53
944573,345,53
944583,316,53
944593,330,53
944604,357,53
944614,547,52
944624,653,52
944635,652,52
944645,287,52
944655,263,52
944666,308,52
944675,321,52
944686,304,52
944696,302,52
944706,325,52
944717,302,52
944727,323,52
944737,322,52
944748,310,52
944758,343,52
944768,319,52
944779,332,52
944789,346,52
944799,323,52
944809,356,52
944819,341,52
944829,342,52
944840,374,52
944851,351,52
944861,375,52
944871,386,52
944881,379,52
944891,415,52
944902,397,52
944912,415,52
944922,425,52
944933,382,52
944943,389,52
944953,350,52
944963,316,52
944973,318,52
944984,278,52
944994,293,52
945004,290,52
945015,273,52
945024,307,52
945035,279,52
945046,284,52
945056,301,52
945066,278,52
945076,306,52
945087,291,52
945097,283,52
945107,313,52
945118,286,52
945128,302,52
945138,303,52
945148,284,52
945158,314,52
945169,287,52
945179,295,52
945189,312,52
945199,284,52
945210,313,52
945220,300,52
945231,294,52
945241,320,52
945251,294,52
945260,311,52
945271,313,52
945282,297,52
945292,325,52
945301,301,52
945313,307,52
945323,325,52
945333,296,52
945344,323,52
945353,314,52
945364,304,52
945374,332,52
945385,302,52
945395,320,52
945404,326,52
945415,306,52
945425,337,52
945435,314,52
945445,318,52
945456,335,52
945466,303,52
945476,334,52
945486,320,52
945497,314,52
945508,342,52
945518,313,52
945528,329,52
945538,333,52
945548,312,52
945559,341,52
945569,322,52
945579,327,52
945589,345,52
945599,315,52
945610,339,52
945621,331,52
945631,318,52
945641,346,52
945651,320,52
945662,333,52
945672,347,52
945682,342,52
945693,361,52
945703,335,52
945713,333,52
945723,348,52
945733,318,52
945744,340,52
945754,334,52
945764,320,52
945775,347,52
945784,320,52
945795,323,52
945805,385,52
945815,610,52
945825,653,52
945836,648,52
945846,220,52
945857,293,52
945866,308,52
945877,320,52
945887,314,52
945898,303,52
945908,331,52
945918,304,52
945928,324,52
945938,336,52
945949,312,52
945959,343,52
945969,326,52
945979,332,52
945989,354,52
946000,330,52
946011,360,52
946021,358,52
946031,347,52
946042,380,52
946052,362,52
946062,384,52
946072,405,52
946082,391,52
946093,429,52
946103,414,52
946114,419,52
946124,440,52
946133,396,52
946144,393,52
946154,357,52
946164,316,52
946175,320,52
946185,283,52
946196,290,52
946206,295,52
946216,269,52
946226,299,52
946236,281,52
946247,280,52
946257,306,52
946267,278,52
946278,300,52
946288,298,52
946298,284,52
946309,313,52
946319,285,52
946329,300,52
946339,309,52
946349,282,52
946360,312,52
946370,294,52
946380,291,52
946391,313,52
946401,288,52
946411,309,52
946421,304,52
946431,287,52
946442,320,52
946452,294,52
946462,302,52
946472,319,52
946483,288,52
946493,316,52
946503,306,52
946514,298,52
946523,322,52
946535,295,52
946545,317,52
946555,314,52
946565,297,52
946575,328,52
946585,305,52
946596,311,52
946606,322,52
946617,300,52
946627,331,52
946637,311,52
946647,306,52
946657,332,52
946668,302,52
946677,325,52
946688,325,52
946699,305,52
946708,332,52
946718,309,52
946729,316,52
946740,334,52
946749,306,52
946760,335,52
946770,323,52
946780,320,52
946791,345,52
946801,312,52
946811,342,52
946822,353,52
946832,326,52
946842,355,52
946852,322,52
946863,326,52
946873,337,52
946883,307,52
946893,336,52
946903,324,52
946913,317,52
946924,342,52
946935,303,52
946945,413,52
946955,652,53
946965,653,53
946975,570,53
946986,187,53
946996,290,53
947006,328,53
947017,289,53
947027,317,53
947037,308,53
947047,301,53
947058,330,53
947067,305,53
947077,323,53
947089,330,53
947099,308,53
947108,341,53
947119,324,53
947129,331,53
947140,353,53
947150,331,53
947160,360,53
947171,353,53
947181,354,53
947191,386,53
947201,367,53
947211,393,53
947222,406,53
947232,396,53
947242,428,53
947253,410,53
947263,414,53
947273,409,53
947284,354,53
947294,350,53
947304,315,53
947313,288,53
947325,304,53
947335,269,53
947345,286,53
947355,290,53
947365,270,53
947375,304,53
947386,281,53
947397,288,53
947406,309,53
947417,280,53
947427,308,53
947437,296,53
947448,285,53
947458,313,53
947468,287,53
947478,306,53
947488,309,53
947499,288,53
947509,317,53
947519,295,53
947529,297,53
947540,315,53
947550,284,53
947560,312,53
947571,302,53
947581,290,53
947591,319,53
947601,292,53
947612,307,53
947622,314,53
947633,292,53
947643,321,53
947652,301,53
947663,304,53
947674,323,53
947683,293,53
947694,323,53
947704,315,53
947714,301,53
947725,329,53
947735,301,53
947745,315,53
947755,324,53
947766,301,53
947776,330,53
947786,314,53
947796,318,53
947807,337,53
947818,307,53
947827,332,53
947838,325,53
947848,314,53
947859,343,53
947869,312,53
947879,330,53
947890,337,53
947899,313,53
947910,344,53
947919,321,53
947930,318,53
947941,342,53
947950,315,53
947960,337,53
947971,334,53
947981,318,53
947992,348,53
948002,331,53
948012,354,53
948022,353,53
948033,329,53
948043,354,53
948053,326,53
948063,321,53
948074,341,53
948084,314,53
948094,341,53
948105,334,53
948114,316,53
948125,340,53
948136,420,53
948145,652,52
948156,653,52
948166,507,52
948176,212,52
948187,304,52
948197,314,52
948208,324,52
948217,294,52
948227,320,52
948238,318,52
948248,305,52
948259,338,52
948268,312,52
948278,326,52
948290,339,52
948300,313,52
948310,344,52
948321,334,52
948331,336,52
948340,360,52
948351,335,52
948361,365,52
948372,369,52
948381,355,52
948392,395,52
948402,379,52
948413,405,52
948423,422,52
948433,400,52
948443,432,52
948454,413,52
948464,388,52
948474,383,52
948484,325,52
948495,324,52
948505,303,52
948515,275,52
948526,301,52
948535,272,52
948546,288,52
948557,299,52
948566,271,52
948577,305,52
948587,286,52
948597,285,52
948608,309,52
948618,281,52
948628,306,52
948638,302,52
948648,283,52
948659,318,52
948669,290,52
948679,299,52
948690,313,52
948700,286,52
948710,313,52
948721,297,52
948731,293,52
948741,316,52
948751,288,52
948762,312,52
948772,308,52
948782,291,52
948792,320,52
948803,296,52
948813,310,52
948823,318,52
948833,291,52
948844,323,52
948854,305,52
948864,303,52
948875,325,52
948885,293,52
948895,315,52
948906,318,52
948915,299,52
948925,328,52
948936,304,52
948946,310,52
948956,326,52
948967,301,52
948977,330,52
948987,317,52
948997,304,52
949008,331,52
949018,304,52
949028,323,52
949039,326,52
949049,307,52
949060,335,52
949070,310,52
949080,321,52
949090,333,52
949100,309,52
949111,337,52
949121,328,52
949131,336,52
949142,361,52
949152,325,52
949162,342,52
949172,333,52
949183,311,52
949193,336,52
949203,314,52
949213,319,52
949224,336,52
949233,308,52
949244,330,52
949255,338,52
949265,538,52
949275,653,52
949285,652,52
949295,254,52
949306,246,52
949315,300,52
949326,330,52
949336,296,52
949347,306,52
949357,331,52
949367,302,52
949378,327,52
949388,321,52
949398,317,52
949408,342,52
949419,315,52
949429,340,52
949439,343,52
949450,328,52
949460,361,52
949470,344,52
949480,356,52
949490,378,52
949501,360,52
949511,397,52
949522,394,52
949531,394,52
949541,433,52
949551,415,52
949562,436,52
949572,438,52
949583,405,52
949592,403,52
949604,348,52
949614,325,52
949624,316,52
949634,273,52
949645,295,52
949654,282,52
949665,272,52
949674,296,52
949686,269,52
949696,289,52
949706,293,52
949716,273,52
949726,304,52
949737,283,52
949747,289,52
949758,305,52
949768,276,52
949778,306,52
949788,296,52
949798,285,52
949809,311,52
949819,281,52
949830,298,52
949839,301,52
949850,279,52
949861,313,52
949870,288,52
949881,292,52
949890,311,52
949901,283,52
949911,310,52
949922,298,52
949932,286,52
949942,317,52
949953,288,52
949963,306,52
949973,313,52
949983,289,52
949993,322,52
950004,301,52
950014,304,52
950024,325,52
950034,297,52
950045,322,52
950055,313,52
950065,301,52
950075,333,52
950086,302,52
950097,320,52
950107,327,52
950117,304,52
950127,336,52
950137,312,52
950147,315,52
950157,335,52
950167,308,52
950178,332,52
950189,327,52
950199,332,52
950209,361,52
950220,324,52
950229,336,52
950240,333,52
950251,304,52
950260,330,52
950271,312,52
950281,313,52
950291,332,52
950301,306,52
950312,321,52
950322,345,52
950332,564,53
950343,653,53
950353,650,53
950363,229,53
950373,262,53
950383,299,53
950394,315,53
950404,294,53
950414,299,53
950425,321,53
950434,293,53
950444,322,53
950456,320,53
950466,308,53
950476,338,53
950485,316,53
950497,334,53
950507,340,53
950516,322,53
950527,355,53
950537,340,53
950547,347,53
950558,374,53
950568,353,53
950578,388,53
950589,389,53
950599,385,53
950609,423,53
950620,401,53
950630,423,53
950640,426,53
950650,387,53
950660,392,53
950671,343,53
950681,313,53
950691,320,53
950702,274,53
950712,295,53
950723,286,53
950732,272,53
950743,302,53
950753,275,53
950763,289,53
950773,301,53
950784,276,53
950795,309,53
950804,292,53
950814,294,53
950825,312,53
950835,282,53
950846,306,53
950855,303,53
950866,288,53
950877,317,53
950887,288,53
950897,301,53
950907,312,53
950917,288,53
950927,315,53
950937,296,53
950949,296,53
950959,319,53
950968,291,53
950979,315,53
950989,309,53
950999,295,53
951010,326,53
951019,302,53
951030,313,53
951041,324,53
951051,295,53
951061,324,53
951072,311,53
951082,309,53
951092,334,53
951102,305,53
951113,328,53
951122,322,53
951133,307,53
951143,340,53
951153,309,53
951164,320,53
951174,335,53
951184,306,53
951194,333,53
951204,319,53
951215,318,53
951226,337,53
951235,309,53
951245,335,53
951255,331,53
951267,313,53
951277,344,53
951287,319,53
951297,328,53
951307,344,53
951317,317,53
951328,344,53
951338,325,53
951349,331,53
951359,366,53
951369,332,53
951380,353,53
951389,346,53
951399,318,53
951410,347,53
951421,318,53
951431,327,53
951440,342,53
951451,317,53
951462,344,53
951472,321,53
951481,399,53
951492,652,52
951502,653,52
951512,604,52
951523,217,52
951534,283,52
951543,338,52
951554,294,52
951564,306,52
951574,324,52
951584,303,52
951595,333,52
951604,320,52
951616,319,52
951626,343,52
951636,314,52
951646,338,52
951657,342,52
951666,325,52
951677,357,52
951687,337,52
951697,349,52
951708,369,52
951717,348,52
951728,383,52
951739,381,52
951749,381,52
951759,415,52
951769,398,52
951779,425,52
951790,429,52
951800,406,52
951810,420,52
951821,371,52
951831,352,52
951841,339,52
951851,293,52
951861,309,52
951873,290,52
951882,280,52
951893,307,52
951903,282,52
951913,301,52
951923,303,52
951933,280,52
951944,311,52
951954,291,52
951964,296,52
951975,309,52
951985,280,52
951995,310,52
952006,300,52
952016,289,52
952026,315,52
952036,290,52
952047,308,52
952057,307,52
952067,288,52
952078,314,52
952088,289,52
952098,299,52
952108,318,52
952118,292,52
952129,317,52
952138,306,52
952149,299,52
952160,329,52
952170,297,52
952179,317,52
952191,320,52
952200,296,52
952211,329,52
952221,308,52
952231,312,52
952242,330,52
952252,304,52
952263,328,52
952272,315,52
952283,307,52
952293,338,52
952303,312,52
952314,327,52
952323,335,52
952333,313,52
952343,345,52
952355,318,52
952365,322,52
952375,340,52
952385,313,52
952395,337,52
952406,330,52
952416,335,52
