Timestamp,ECGValue,BPM
1262279,353,62
1262289,315,62
1262299,307,62
1262310,308,62
1262320,284,62
1262331,304,62
1262340,292,62
1262352,289,62
1262362,308,62
1262371,286,62
1262382,306,62
1262392,307,62
1262402,292,62
1262413,318,62
1262423,298,62
1262434,306,62
1262444,314,62
1262454,296,62
1262464,314,62
1262475,303,62
1262484,302,62
1262495,320,62
1262505,297,62
1262516,314,62
1262525,315,62
1262535,299,62
1262546,323,62
1262556,305,62
1262567,312,62
1262577,324,62
1262587,302,62
1262598,323,62
1262608,315,62
1262618,312,62
1262629,330,62
1262638,308,62
1262649,322,62
1262659,324,62
1262669,309,62
1262679,335,62
1262690,317,62
1262701,323,62
1262711,333,62
1262721,310,62
1262731,334,62
1262742,327,62
1262752,321,62
1262762,339,62
1262772,318,62
1262783,339,62
1262792,351,62
1262803,334,62
1262813,357,62
1262824,337,62
1262834,330,62
1262844,340,62
1262854,315,62
1262865,337,62
1262875,330,62
1262885,322,62
1262895,346,62
1262906,316,62
1262916,340,62
1262926,526,63
1262937,653,63
1262947,653,63
1262957,311,63
1262968,235,63
1262977,334,63
1262987,307,63
1262998,325,63
1263008,316,63
1263018,307,63
1263029,332,63
1263039,311,63
1263049,328,63
1263059,333,63
1263069,321,63
1263080,345,63
1263091,330,63
1263100,336,63
1263111,354,63
1263121,335,63
1263131,363,63
1263141,358,63
1263152,354,63
1263162,380,63
1263173,368,63
1263183,384,63
1263193,398,63
1263203,391,63
1263213,418,63
1263223,406,63
1263234,407,63
1263244,416,63
1263254,375,63
1263264,369,63
1263274,339,63
1263285,310,63
1263295,316,63
1263306,287,63
1263316,292,63
1263327,300,63
1263337,283,63
1263347,304,63
1263358,291,63
1263368,295,63
1263378,312,63
1263388,289,63
1263398,309,63
1263408,302,63
1263419,291,63
1263429,315,63
1263439,286,63
1263450,296,63
1263460,304,63
1263470,286,63
1263481,306,63
1263490,295,63
1263500,293,63
1263512,308,63
1263521,287,63
1263532,305,63
1263542,301,63
1263553,289,63
1263562,313,63
1263573,292,63
1263583,298,63
1263593,309,63
1263603,287,63
1263614,313,63
1263624,299,63
1263635,295,63
1263645,320,63
1263655,308,63
1263666,323,63
1263676,323,63
1263686,305,63
1263696,319,63
1263706,297,63
1263716,305,63
1263727,316,63
1263737,292,63
1263748,316,63
1263758,307,63
1263768,296,63
1263778,321,63
1263788,464,63
1263799,652,64
1263809,652,64
1263819,257,64
1263830,229,64
1263840,293,64
1263850,297,64
1263860,303,64
1263871,287,64
1263881,308,64
1263891,304,64
1263902,301,64
1263911,323,64
1263921,301,64
1263932,320,64
1263943,325,64
1263953,312,64
1263963,342,64
1263973,328,64
1263984,335,64
1263994,352,64
1264004,335,64
1264015,365,64
1264024,360,64
1264035,361,64
1264044,390,64
1264055,376,64
1264066,396,64
1264076,403,64
1264087,391,64
1264097,412,64
1264106,379,64
1264117,357,64
1264127,344,64
1264138,301,64
1264148,306,64
1264158,286,64
1264168,274,64
1264178,294,64
1264189,274,64
1264199,288,64
1264209,289,64
1264220,274,64
1264230,297,64
1264240,283,64
1264251,288,64
1264260,304,64
1264271,282,64
1264281,301,64
1264292,296,64
1264302,285,64
1264312,307,64
1264322,284,64
1264333,297,64
1264342,300,64
1264353,283,64
1264363,307,64
1264374,293,64
1264384,295,64
1264394,310,64
1264405,288,64
1264415,308,64
1264425,303,64
1264435,293,64
1264445,318,64
1264456,297,64
1264466,309,64
1264476,315,64
1264487,298,64
1264497,321,64
1264507,306,64
1264518,308,64
1264528,326,64
1264538,302,64
1264549,324,64
1264559,318,64
1264569,308,64
1264579,331,64
1264589,311,64
1264599,321,64
1264610,325,64
1264620,308,64
1264630,334,64
1264640,319,64
1264651,316,64
1264661,340,64
1264672,326,64
1264681,346,64
1264692,339,64
1264702,324,64
1264712,339,64
1264722,316,64
1264733,323,64
1264743,332,64
1264754,311,64
1264764,338,64
1264774,326,64
1264784,318,64
1264794,338,64
1264805,463,64
1264815,652,65
1264825,653,65
1264835,403,65
1264846,233,65
1264856,318,65
1264866,315,65
1264877,314,65
1264887,297,65
1264897,320,65
1264907,313,65
1264918,309,65
1264928,329,65
1264939,309,65
1264949,329,65
1264959,330,65
1264969,320,65
1264980,344,65
1264990,327,65
1265000,336,65
1265010,349,65
1265020,334,65
1265031,363,65
1265040,356,65
1265051,356,65
1265062,384,65
1265072,367,65
1265081,392,65
1265092,396,65
1265103,386,65
1265113,412,65
1265123,389,65
1265133,380,65
1265143,367,65
1265154,325,65
1265164,330,65
1265175,303,65
1265185,292,65
1265195,308,65
1265205,286,65
1265216,301,65
1265226,302,65
1265236,286,65
1265246,312,65
1265256,294,65
1265267,298,65
1265277,311,65
1265287,287,65
1265298,308,65
1265308,300,65
1265318,294,65
1265328,315,65
1265338,291,65
1265349,305,65
1265358,306,65
1265370,290,65
1265380,315,65
1265390,297,65
1265400,301,65
1265410,317,65
1265420,295,65
1265431,315,65
1265441,307,65
1265451,298,65
1265462,321,65
1265472,299,65
1265482,316,65
1265493,318,65
1265503,301,65
1265513,326,65
1265523,308,65
1265534,310,65
1265543,327,65
1265554,304,65
1265565,325,65
1265575,318,65
1265585,309,65
1265595,332,65
1265606,311,65
1265616,324,65
1265625,330,65
1265636,311,65
1265646,336,65
1265656,319,65
1265667,323,65
1265677,339,65
1265687,313,65
1265697,334,65
1265707,329,65
1265718,320,65
1265729,343,65
1265739,322,65
1265749,334,65
1265760,337,65
1265769,319,65
1265780,342,65
1265790,336,65
1265801,346,65
1265810,358,65
1265821,332,65
1265831,346,65
1265841,337,65
1265852,324,65
1265862,344,65
1265872,322,65
1265882,332,65
1265892,339,65
1265903,322,65
1265913,332,65
1265923,373,65
1265934,610,64
1265944,653,64
1265954,643,64
1265964,228,64
1265975,289,64
1265985,320,64
1265995,324,64
1266005,304,64
1266016,314,64
1266026,324,64
1266037,308,64
1266047,333,64
1266057,322,64
1266067,322,64
1266077,342,64
1266088,319,64
1266098,340,64
1266108,341,64
1266119,330,64
1266129,355,64
1266140,336,64
1266150,348,64
1266160,365,64
1266170,350,64
1266181,380,64
1266191,375,64
1266201,380,64
1266211,405,64
1266222,386,64
1266231,408,64
1266241,407,64
1266252,383,64
1266262,388,64
1266273,345,64
1266283,329,64
1266293,322,64
1266303,291,64
1266313,309,64
1266323,296,64
1266335,290,64
1266345,309,64
1266355,289,64
1266365,305,64
1266375,302,64
1266385,291,64
1266396,314,64
1266406,296,64
1266416,305,64
1266427,312,64
1266437,290,64
1266447,313,64
1266458,300,64
1266468,296,64
1266478,315,64
1266488,293,64
1266499,307,64
1266509,308,64
1266519,293,64
1266529,318,64
1266540,299,64
1266549,306,64
1266560,318,64
1266571,295,64
1266581,318,64
1266591,308,64
1266601,302,64
1266612,322,64
1266622,302,64
1266631,317,64
1266642,319,64
1266652,302,64
1266663,328,64
1266673,311,64
1266683,317,64
1266694,331,64
1266704,305,64
1266714,329,64
1266725,322,64
1266734,313,64
1266745,336,64
1266755,314,64
1266765,328,64
1266776,333,64
1266786,316,64
1266796,339,64
1266806,324,64
1266816,325,64
1266827,341,64
1266838,318,64
1266847,337,64
1266858,332,64
1266868,325,64
1266879,342,64
1266888,328,64
1266899,349,64
1266908,349,64
1266920,335,64
1266930,349,64
1266939,328,64
1266950,326,64
1266961,341,64
1266971,317,64
1266980,338,64
1266991,332,64
1267001,317,64
1267011,331,64
1267022,377,64
1267032,650,62
1267042,653,62
1267052,592,62
1267062,210,62
1267073,284,62
1267084,316,62
1267094,323,62
1267104,299,62
1267114,323,62
1267125,316,62
1267135,313,62
1267146,335,62
1267156,316,62
1267165,330,62
1267175,336,62
1267186,322,62
1267196,349,62
1267206,336,62
1267216,338,62
1267228,358,62
1267238,339,62
1267248,364,62
1267258,365,62
1267269,362,62
1267279,397,62
1267289,381,62
1267299,403,62
1267309,420,62
1267320,404,62
1267330,433,62
1267340,415,62
1267350,395,62
1267361,386,62
1267371,334,62
1267381,327,62
1267392,306,62
1267401,284,62
1267412,300,62
1267422,277,62
1267433,283,62
1267443,291,62
1267453,275,62
1267464,300,62
1267474,284,62
1267484,286,62
1267494,303,62
1267504,278,62
1267514,299,62
1267525,294,62
1267535,286,62
1267546,308,62
1267556,285,62
1267566,293,62
1267576,302,62
1267586,279,62
1267597,302,62
1267607,290,62
1267617,286,62
1267628,307,62
1267638,282,62
1267648,298,62
1267659,298,62
1267668,285,62
1267679,308,62
1267689,291,62
1267700,297,62
1267710,307,62
1267720,287,62
1267730,313,62
1267740,301,62
1267751,296,62
1267761,315,62
1267771,293,62
1267782,311,62
1267792,312,62
1267802,299,62
1267813,321,62
1267823,305,62
1267833,321,62
1267843,337,62
1267854,311,62
1267864,331,62
1267874,311,62
1267884,305,62
1267895,321,62
1267905,299,62
1267915,313,62
1267926,315,62
1267936,299,62
1267946,328,62
1267956,304,62
1267966,414,62
1267977,652,62
1267987,653,62
1267997,437,62
1268007,187,62
1268018,290,62
1268028,318,62
1268038,290,62
1268049,307,62
1268059,312,62
1268069,297,62
1268080,322,62
1268089,308,62
1268100,313,62
1268110,329,62
1268121,309,62
1268131,333,62
1268141,328,62
1268151,326,62
1268161,350,62
1268172,330,62
1268182,349,62
1268193,357,62
1268203,348,62
1268213,378,62
1268223,371,62
1268234,385,62
1268243,408,62
1268253,392,62
1268265,419,62
1268275,411,62
1268285,395,62
1268295,392,62
1268305,339,62
1268316,329,62
1268325,312,62
1268336,282,62
1268346,298,62
1268357,278,62
1268367,276,62
1268377,292,62
1268388,270,62
1268398,293,62
1268407,287,62
1268418,278,62
1268428,304,62
1268439,283,62
1268449,297,62
1268459,303,62
1268470,287,62
1268480,311,62
1268489,296,62
1268500,295,62
1268510,309,62
1268521,288,62
1268531,307,62
1268541,302,62
1268551,290,62
1268561,315,62
1268572,292,62
1268583,303,62
1268592,310,62
1268602,291,62
1268613,314,62
1268624,301,62
1268634,303,62
1268644,320,62
1268654,298,62
1268665,318,62
1268675,312,62
1268685,301,62
1268695,326,62
1268705,306,62
1268716,315,62
1268726,325,62
1268736,306,62
1268746,328,62
1268757,315,62
1268767,313,62
1268778,331,62
1268788,308,62
1268798,330,62
1268808,326,62
1268819,314,62
1268829,338,62
1268839,317,62
1268849,327,62
1268859,337,62
1268870,318,62
1268880,340,62
1268890,325,62
1268901,324,62
1268911,345,62
1268921,322,62
1268931,337,62
1268942,333,62
1268952,329,62
1268962,360,62
1268972,337,62
1268982,343,62
1268993,345,62
1269003,319,62
1269014,341,62
1269024,326,62
1269034,321,62
1269044,339,62
1269055,318,62
1269065,335,62
1269075,321,62
1269085,369,62
1269096,635,62
1269106,653,62
1269116,639,62
1269127,235,62
1269137,277,62
1269147,335,62
1269157,305,62
1269167,301,62
1269178,325,62
1269188,302,62
1269198,319,62
1269209,320,62
1269219,309,62
1269229,335,62
1269239,320,62
1269250,330,62
1269260,341,62
1269270,324,62
1269281,348,62
1269291,340,62
1269301,337,62
1269310,361,62
1269321,343,62
1269331,367,62
1269342,375,62
1269353,370,62
1269363,400,62
1269373,389,62
1269383,400,62
1269394,414,62
1269404,392,62
1269414,403,62
1269424,370,62
1269434,341,62
1269445,339,62
1269455,298,62
1269465,302,62
1269475,297,62
1269485,279,62
1269496,302,62
1269506,283,62
1269517,289,62
1269527,305,62
1269537,281,62
1269547,305,62
1269557,298,62
1269568,291,62
1269579,309,62
1269589,288,62
1269599,305,62
1269609,307,62
1269619,289,62
1269630,312,62
1269640,296,62
1269650,298,62
1269661,311,62
1269670,289,62
1269681,310,62
1269691,301,62
1269702,293,62
1269712,316,62
1269722,292,62
1269732,307,62
1269742,309,62
1269752,294,62
1269763,317,62
1269773,300,62
1269784,305,62
1269793,321,62
1269804,299,62
1269814,320,62
1269824,313,62
1269834,306,62
1269845,326,62
1269856,304,62
1269866,318,62
1269876,322,62
1269886,306,62
1269897,330,62
1269907,317,62
1269917,316,62
1269927,331,62
1269937,309,62
1269948,331,62
1269958,324,62
1269969,313,62
1269979,336,62
1269988,315,62
1269999,328,62
1270010,333,62
1270020,317,62
1270030,340,62
1270040,323,62
1270050,325,62
1270061,344,62
1270071,320,62
1270082,340,62
1270092,335,62
1270101,325,62
1270111,346,62
1270122,330,62
1270132,350,62
1270143,354,62
1270153,334,62
1270163,355,62
1270173,331,62
1270183,328,62
1270194,343,62
1270204,319,62
1270215,338,62
1270225,333,62
1270236,324,62
1270246,334,62
1270255,370,62
1270266,633,60
1270276,653,60
1270287,642,60
1270297,234,60
1270307,287,60
1270317,326,60
1270327,323,60
1270338,301,60
1270349,324,60
1270358,319,60
1270369,310,60
1270379,338,60
1270389,317,60
1270399,329,60
1270409,342,60
1270420,325,60
1270430,348,60
1270440,340,60
1270451,338,60
1270461,360,60
1270471,342,60
1270482,364,60
1270492,367,60
1270503,361,60
1270513,392,60
1270522,381,60
1270533,399,60
1270543,416,60
1270553,403,60
1270564,427,60
1270573,414,60
1270584,399,60
1270594,391,60
1270605,343,60
1270615,337,60
1270626,316,60
1270636,288,60
1270646,304,60
1270656,283,60
1270666,290,60
1270677,299,60
1270687,278,60
1270697,303,60
1270707,289,60
1270718,290,60
1270728,308,60
1270738,287,60
1270749,305,60
1270758,303,60
1270769,289,60
1270779,313,60
1270790,292,60
1270799,296,60
1270810,311,60
1270821,285,60
1270831,308,60
1270841,298,60
1270851,291,60
1270861,311,60
1270872,289,60
1270882,308,60
1270893,309,60
1270903,293,60
1270913,320,60
1270923,302,60
1270933,307,60
1270943,318,60
1270954,298,60
1270964,321,60
1270974,310,60
1270985,304,60
1270995,325,60
1271005,303,60
1271015,317,60
1271026,321,60
1271036,305,60
1271046,330,60
1271057,312,60
1271066,316,60
1271077,332,60
1271087,308,60
1271097,330,60
1271108,322,60
1271118,317,60
1271128,336,60
1271138,312,60
1271149,326,60
1271159,330,60
1271170,313,60
1271180,333,60
1271190,325,60
1271201,339,60
1271211,349,60
1271221,326,60
1271231,342,60
1271241,327,60
1271252,313,60
1271262,335,60
1271272,312,60
1271283,322,60
1271292,326,60
1271303,309,60
1271313,323,60
1271324,352,60
1271333,593,59
1271343,653,59
1271354,640,59
1271364,216,59
1271374,269,59
1271385,305,59
1271395,313,59
1271405,291,59
1271416,305,59
1271426,314,59
1271436,299,59
1271447,324,59
1271457,312,59
1271467,315,59
1271477,334,59
1271488,314,59
1271498,335,59
1271508,332,59
1271518,327,59
1271528,354,59
1271539,336,59
1271549,352,59
1271560,366,59
1271570,353,59
1271580,385,59
1271591,380,59
1271601,390,59
1271611,413,59
1271621,394,59
1271631,419,59
1271642,413,59
1271652,389,59
1271662,383,59
1271673,333,59
1271683,319,59
1271693,307,59
1271703,277,59
1271714,296,59
1271724,278,59
1271734,277,59
1271745,295,59
1271755,272,59
1271765,292,59
1271775,288,59
1271786,277,59
1271796,302,59
1271806,282,59
1271816,294,59
1271827,303,59
1271837,284,59
1271846,307,59
1271857,294,59
1271867,289,59
1271877,306,59
1271887,285,59
1271898,302,59
1271908,302,59
1271919,287,59
1271929,310,59
1271939,291,59
1271949,301,59
1271960,308,59
1271970,288,59
1271980,311,59
1271990,301,59
1272000,298,59
1272012,315,59
1272021,293,59
1272032,312,59
1272042,311,59
1272052,297,59
1272063,323,59
1272073,302,59
1272083,309,59
1272092,320,59
1272104,300,59
1272114,323,59
1272124,312,59
1272134,311,59
1272145,330,59
1272154,307,59
1272165,325,59
1272175,324,59
1272186,309,59
1272196,333,59
1272206,316,59
1272217,325,59
1272227,335,59
1272237,314,59
1272248,337,59
1272258,327,59
1272268,321,59
1272278,342,59
1272289,318,59
1272299,335,59
1272309,335,59
1272319,319,59
1272329,342,59
1272339,332,59
1272350,345,59
1272360,353,59
1272370,331,59
1272381,347,59
1272391,328,59
1272401,323,59
1272411,342,59
1272421,317,59
1272432,334,59
1272442,333,59
1272452,318,59
1272463,332,59
1272473,382,59
1272484,640,56
1272493,653,56
1272504,614,56
1272514,221,56
1272525,296,56
1272534,319,56
1272545,320,56
1272555,299,56
1272566,315,56
1272576,319,56
1272586,307,56
1272596,334,56
1272607,318,56
1272617,323,56
1272626,339,56
1272637,317,56
1272648,341,56
1272658,336,56
1272668,332,56
1272679,355,56
1272688,336,56
1272699,353,56
1272710,362,56
1272720,352,56
1272730,381,56
1272740,373,56
1272751,384,56
1272760,407,56
1272771,389,56
1272782,411,56
1272791,404,56
1272802,386,56
1272812,383,56
1272822,333,56
1272833,326,56
1272843,313,56
1272853,283,56
1272863,302,56
1272874,284,56
1272884,284,56
1272894,301,56
1272905,278,56
1272915,301,56
1272925,295,56
1272935,287,56
1272945,307,56
1272956,288,56
1272966,298,56
1272976,305,56
1272987,287,56
1272997,310,56
1273007,294,56
1273017,294,56
1273028,311,56
1273037,286,56
1273048,307,56
1273058,301,56
1273068,290,56
1273078,313,56
1273089,291,56
1273099,303,56
1273110,311,56
1273120,291,56
1273130,315,56
1273141,300,56
1273150,300,56
1273160,317,56
1273171,297,56
1273181,318,56
1273192,313,56
1273202,302,56
1273212,324,56
1273222,303,56
1273232,312,56
1273243,320,56
1273254,300,56
1273264,325,56
1273274,313,56
1273284,312,56
1273294,330,56
1273304,308,56
1273315,326,56
1273325,325,56
1273336,309,56
1273346,333,56
1273356,312,56
1273366,322,56
1273376,331,56
1273386,311,56
1273397,334,56
1273407,321,56
1273417,320,56
1273427,339,56
1273438,317,56
1273449,335,56
1273459,333,56
1273469,320,56
1273479,352,56
1273489,339,56
1273499,340,56
1273510,348,56
1273520,322,56
1273530,339,56
1273541,322,56
1273551,319,56
1273561,339,56
1273571,314,56
1273581,334,56
1273592,330,56
1273603,307,56
1273613,435,56
1273623,652,56
1273633,653,56
1273643,529,56
1273654,189,56
1273664,322,56
1273674,316,56
1273684,297,56
1273695,320,56
1273705,302,56
1273715,318,56
1273726,320,56
1273736,311,56
1273746,336,56
1273756,317,56
1273767,325,56
1273777,338,56
1273787,321,56
1273798,345,56
1273808,339,56
1273818,337,56
1273828,358,56
1273839,340,56
1273849,361,56
1273859,369,56
1273870,363,56
1273879,390,56
1273889,383,56
1273900,396,56
1273910,412,56
1273920,394,56
1273931,411,56
1273941,388,56
1273951,358,56
1273962,350,56
1273971,308,56
1273982,306,56
1273993,300,56
1274002,277,56
1274013,297,56
1274023,281,56
1274033,284,56
1274043,299,56
1274054,279,56
1274064,301,56
1274075,293,56
1274085,286,56
1274095,308,56
1274105,286,56
1274116,299,56
1274126,304,56
1274136,286,56
1274146,310,56
1274156,290,56
1274167,295,56
1274178,310,56
1274188,286,56
1274198,305,56
1274208,301,56
1274219,292,56
1274229,313,56
1274238,291,56
1274250,305,56
1274260,309,56
1274270,292,56
1274280,317,56
1274290,301,56
1274301,303,56
1274311,320,56
1274321,295,56
1274331,316,56
1274341,313,56
1274352,302,56
1274362,325,56
1274373,304,56
1274383,316,56
1274393,321,56
1274403,304,56
1274413,329,56
1274424,315,56
1274434,317,56
1274444,331,56
1274454,309,56
1274465,328,56
1274475,324,56
1274485,313,56
1274496,337,56
1274506,317,56
1274516,325,56
1274526,333,56
1274537,313,56
1274547,336,56
1274557,323,56
1274568,324,56
1274577,342,56
1274587,315,56
1274598,339,56
1274608,344,56
1274619,337,56
1274629,355,56
1274639,333,56
1274650,334,56
1274660,337,56
1274670,318,56
1274680,341,56
1274691,327,56
1274701,323,56
1274710,342,56
1274721,312,56
1274731,338,56
1274742,501,54
1274752,653,54
1274763,653,54
1274773,356,54
1274783,224,54
1274793,331,54
1274803,304,54
1274814,324,54
1274824,314,54
1274834,313,54
1274845,334,54
1274855,314,54
1274865,332,54
1274875,331,54
1274886,319,54
1274896,347,54
1274906,328,54
1274916,338,54
1274927,353,54
1274937,334,54
1274947,360,54
1274958,356,54
1274968,356,54
1274977,385,54
1274988,370,54
1274999,395,54
1275008,406,54
1275019,400,54
1275030,434,54
1275040,420,54
1275050,429,54
1275060,429,54
1275070,386,54
1275080,376,54
1275091,340,54
1275101,310,54
1275111,311,54
1275122,279,54
1275132,290,54
1275143,291,54
1275153,274,54
1275163,296,54
1275173,277,54
1275183,287,54
1275194,300,54
1275203,277,54
1275214,303,54
1275225,294,54
1275235,291,54
1275245,312,54
1275255,290,54
1275266,302,54
1275276,305,54
1275286,287,54
1275297,311,54
1275307,291,54
1275316,295,54
1275327,311,54
1275337,289,54
1275347,310,54
1275358,302,54
1275368,295,54
1275378,316,54
1275388,294,54
1275399,308,54
1275409,310,54
1275420,295,54
1275430,318,54
1275440,300,54
1275449,305,54
1275461,321,54
1275471,295,54
1275481,319,54
1275491,312,54
1275501,304,54
1275512,327,54
1275522,301,54
1275532,319,54
1275543,321,54
1275553,306,54
1275563,329,54
1275574,313,54
1275583,321,54
1275594,345,54
1275604,325,54
1275615,343,54
1275625,334,54
1275635,313,54
1275645,334,54
1275655,307,54
1275666,322,54
1275676,326,54
1275686,309,54
1275697,331,54
1275707,312,54
1275717,324,54
1275727,503,54
1275737,652,54
1275748,652,54
1275758,288,54
1275768,214,54
1275778,321,54
1275788,300,54
1275799,305,54
1275809,315,54
1275819,298,54
1275829,324,54
1275840,314,54
1275850,313,54
1275861,333,54
1275871,311,54
1275881,334,54
1275891,333,54
1275902,326,54
1275912,348,54
1275922,332,54
1275932,347,54
1275943,359,54
1275953,347,54
1275964,376,54
1275974,373,54
1275983,383,54
1275995,411,54
1276005,398,54
1276014,425,54
1276025,425,54
1276036,412,54
1276046,420,54
1276056,371,54
1276065,349,54
1276076,331,54
1276087,290,54
1276097,299,54
1276106,277,54
1276118,272,54
1276128,289,54
1276138,267,54
1276149,285,54
1276158,284,54
1276169,273,54
1276179,299,54
1276189,280,54
1276200,289,54
1276209,300,54
1276220,280,54
1276230,304,54
1276240,292,54
1276251,286,54
1276261,304,54
1276272,284,54
1276282,298,54
1276292,299,54
1276302,285,54
1276313,310,54
1276323,289,54
1276332,297,54
1276343,310,54
1276354,287,54
1276363,312,54
1276374,299,54
1276385,297,54
1276394,317,54
1276405,295,54
1276415,308,54
1276426,309,54
1276436,296,54
1276446,320,54
1276456,302,54
1276467,309,54
1276476,323,54
1276486,301,54
1276497,322,54
1276508,312,54
1276518,307,54
1276527,327,54
1276538,305,54
1276548,324,54
1276559,323,54
1276569,310,54
1276579,334,54
1276590,316,54
1276600,319,54
1276610,332,54
1276620,312,54
1276631,334,54
1276641,326,54
1276652,320,54
1276661,340,54
1276671,319,54
1276682,334,54
1276693,335,54
1276703,325,54
1276713,356,54
1276723,340,54
1276734,339,54
1276744,348,54
1276754,318,54
1276764,338,54
1276775,329,54
1276785,320,54
1276795,342,54
1276805,321,54
1276815,334,54
1276825,326,54
1276836,365,54
1276846,629,54
1276857,653,54
1276867,647,54
1276877,243,54
1276887,268,54
1276898,334,54
1276908,307,54
1276919,297,54
1276929,322,54
1276939,300,54
1276949,313,54
1276959,322,54
1276969,305,54
1276980,331,54
1276990,318,54
1277000,322,54
1277010,340,54
1277020,321,54
1277031,343,54
1277041,339,54
1277051,334,54
1277062,361,54
1277072,346,54
1277083,363,54
1277093,377,54
1277103,368,54
1277113,399,54
1277124,393,54
1277134,399,54
1277144,420,54
1277154,399,54
1277165,405,54
1277175,379,54
1277186,342,54
1277196,341,54
1277206,302,54
1277216,301,54
1277227,301,54
1277237,279,54
1277247,302,54
1277257,289,54
1277267,287,54
1277277,306,54
1277288,282,54
1277298,301,54
1277308,301,54
1277319,287,54
1277328,310,54
1277339,291,54
1277350,297,54
1277360,310,54
1277370,286,54
1277380,308,54
1277390,296,54
1277401,293,54
1277411,313,54
1277421,289,54
1277431,304,54
1277441,302,54
1277452,291,54
1277463,314,54
1277473,293,54
1277483,299,54
1277493,313,54
1277503,294,54
1277514,315,54
1277524,306,54
1277534,302,54
1277545,320,54
1277554,298,54
1277564,314,54
1277575,314,54
1277585,298,54
1277595,323,54
1277606,305,54
1277616,313,54
1277627,323,54
1277637,301,54
1277647,324,54
1277658,317,54
1277668,309,54
1277678,330,54
1277688,310,54
1277698,323,54
1277709,325,54
1277719,311,54
1277729,334,54
1277739,317,54
1277749,320,54
1277760,334,54
1277770,312,54
1277780,334,54
1277791,323,54
1277801,318,54
1277811,340,54
1277822,318,54
1277832,332,54
1277843,334,54
1277852,316,54
1277862,338,54
1277873,323,54
1277883,325,54
1277894,341,54
1277904,320,54
1277914,339,54
1277924,332,54
1277935,332,54
1277945,361,54
1277955,338,54
1277965,345,54
1277975,346,54
1277985,321,54
1277995,341,54
1278006,324,54
1278017,326,54
1278027,340,54
1278037,317,54
1278047,338,54
1278058,321,54
1278068,373,54
1278078,640,54
1278089,653,54
1278099,643,54
1278109,234,54
1278119,274,54
1278130,336,54
1278140,303,54
1278150,303,54
1278161,322,54
1278171,302,54
1278181,322,54
1278191,320,54
1278201,310,54
1278212,334,54
1278222,317,54
1278232,328,54
1278242,341,54
1278252,323,54
1278263,347,54
1278273,337,54
1278283,338,54
1278294,359,54
1278304,344,54
1278315,368,54
1278325,373,54
1278335,370,54
1278346,402,54
1278356,393,54
1278366,410,54
1278376,423,54
1278386,403,54
1278397,413,54
1278407,379,54
1278417,347,54
1278428,340,54
1278438,297,54
1278448,305,54
1278458,294,54
1278468,279,54
1278479,302,54
1278489,283,54
1278499,291,54
1278509,302,54
1278519,282,54
1278530,307,54
1278540,295,54
1278550,292,54
1278561,308,54
1278571,285,54
1278581,303,54
1278592,301,54
1278601,287,54
1278612,311,54
1278622,294,54
1278632,299,54
1278643,308,54
1278653,289,54
1278663,309,54
1278673,299,54
1278684,293,54
1278695,312,54
1278705,290,54
1278715,308,54
1278725,309,54
1278735,296,54
1278746,320,54
1278755,301,54
1278766,306,54
1278777,319,54
1278786,298,54
1278797,321,54
1278807,310,54
1278817,304,54
1278828,324,54
1278838,300,54
1278848,318,54
1278859,319,54
1278868,304,54
1278878,329,54
1278889,311,54
1278900,318,54
1278910,329,54
1278920,306,54
1278930,331,54
1278940,321,54
1278951,314,54
1278961,337,54
1278971,317,54
1278981,328,54
1278991,332,54
1279002,318,54
1279013,342,54
1279023,323,54
1279033,326,54
1279043,341,54
1279054,319,54
1279063,341,54
1279074,331,54
1279084,323,54
1279095,346,54
1279105,325,54
1279115,337,54
1279126,341,54
1279135,323,54
1279145,346,54
1279156,335,54
1279167,347,54
1279177,362,54
1279187,338,54
1279198,350,54
1279207,337,54
1279217,326,54
1279228,347,54
1279238,322,54
1279248,333,54
1279259,341,54
1279269,321,54
1279279,334,54
1279289,367,54
1279300,614,53
1279310,653,53
1279321,649,53
1279331,239,53
1279341,275,53
1279351,316,53
1279361,327,53
1279372,304,53
1279382,317,53
1279392,325,53
1279402,309,53
1279412,335,53
1279423,324,53
1279433,326,53
1279443,346,53
1279453,324,53
1279464,344,53
1279474,343,53
1279485,335,53
1279495,363,53
1279505,347,53
1279515,359,53
1279526,373,53
1279536,362,53
1279546,391,53
1279557,389,53
1279566,399,53
1279576,426,53
1279587,414,53
1279597,437,53
1279607,435,53
1279617,411,53
1279628,406,53
1279638,354,53
1279648,333,53
1279659,320,53
1279669,282,53
1279680,300,53
1279690,282,53
1279700,275,53
1279710,295,53
1279721,273,53
1279731,292,53
1279741,293,53
1279751,277,53
1279762,303,53
1279771,285,53
1279782,293,53
1279792,306,53
1279802,283,53
1279812,308,53
1279823,298,53
1279833,291,53
1279843,310,53
1279853,288,53
1279864,302,53
1279875,304,53
1279885,289,53
1279896,312,53
1279906,292,53
1279915,297,53
1279925,307,53
1279936,286,53
1279947,308,53
1279956,301,53
1279966,294,53
1279978,317,53
1279987,291,53
1279998,308,53
1280008,311,53
1280018,295,53
1280028,317,53
1280039,301,53
1280049,307,53
1280060,321,53
1280070,297,53
1280080,321,53
1280090,311,53
1280100,307,53
1280111,324,53
1280121,302,53
1280132,318,53
1280141,320,53
1280152,304,53
1280163,330,53
1280172,314,53
1280182,319,53
1280193,348,53
1280203,330,53
1280214,341,53
1280224,333,53
1280234,316,53
1280244,335,53
1280254,309,53
1280264,320,53
1280275,326,53
1280285,308,53
1280296,329,53
1280306,312,53
1280316,316,53
1280326,475,53
1280336,653,53
1280347,653,53
1280357,364,53
1280366,200,53
1280378,321,53
1280388,302,53
1280398,307,53
1280408,314,53
1280419,299,53
1280429,326,53
1280439,313,53
1280450,315,53
1280460,335,53
1280470,314,53
1280480,333,53
1280490,332,53
1280500,326,53
1280511,349,53
1280521,333,53
1280532,344,53
1280542,358,53
1280552,347,53
1280562,378,53
1280573,370,53
1280583,382,53
1280593,408,53
1280604,398,53
1280614,427,53
1280625,427,53
1280634,418,53
1280645,428,53
1280655,382,53
1280665,358,53
1280676,336,53
1280686,291,53
1280696,299,53
1280706,277,53
1280716,273,53
1280726,287,53
1280737,265,53
1280747,283,53
1280758,280,53
1280768,272,53
1280778,295,53
1280788,274,53
1280799,284,53
1280809,294,53
1280819,277,53
1280829,299,53
1280840,286,53
1280849,283,53
1280859,302,53
1280870,280,53
1280881,296,53
1280891,294,53
1280901,282,53
1280911,301,53
1280921,283,53
1280932,292,53
1280942,303,53
1280952,282,53
1280963,306,53
1280973,295,53
1280983,289,53
1280993,308,53
1281003,287,53
1281013,303,53
1281024,304,53
1281034,289,53
1281045,313,53
1281055,298,53
1281065,305,53
1281076,316,53
1281086,294,53
1281096,320,53
1281106,309,53
1281117,304,53
1281127,325,53
1281137,304,53
1281147,318,53
1281158,320,53
1281168,304,53
1281178,329,53
1281189,311,53
1281199,316,53
1281209,330,53
1281219,306,53
1281230,327,53
1281240,319,53
1281250,316,53
1281260,333,53
1281270,312,53
1281281,326,53
1281291,332,53
1281301,317,53
1281311,338,53
1281321,323,53
1281332,337,53
1281343,358,53
1281353,328,53
1281363,348,53
1281373,337,53
1281384,321,53
1281394,340,53
1281404,317,53
1281414,328,53
1281424,334,53
1281435,314,53
1281445,336,53
1281456,313,53
1281466,427,53
1281476,652,53
1281486,653,53
1281496,540,53
1281506,208,53
1281517,303,53
1281527,332,53
1281538,294,53
1281548,309,53
1281558,317,53
1281568,299,53
1281579,327,53
1281588,313,53
1281599,316,53
1281610,334,53
1281619,316,53
1281629,338,53
1281640,335,53
1281651,328,53
1281660,353,53
1281671,334,53
1281682,350,53
1281692,360,53
1281701,348,53
1281712,380,53
1281722,373,53
1281733,382,53
1281743,409,53
1281753,394,53
1281763,419,53
1281773,416,53
1281784,402,53
1281795,411,53
1281804,364,53
1281815,348,53
1281825,330,53
1281836,293,53
1281846,305,53
1281856,288,53
1281867,285,53
1281877,302,53
1281887,281,53
1281897,301,53
1281908,299,53
1281918,287,53
1281928,312,53
1281938,293,53
1281949,299,53
1281958,311,53
1281968,291,53
1281979,314,53
1281990,302,53
1281999,296,53
1282010,316,53
1282020,292,53
1282030,309,53
1282040,307,53
1282051,292,53
1282061,315,53
1282072,296,53
1282082,304,53
1282092,314,53
1282102,294,53
1282113,317,53
1282123,307,53
1282134,305,53
1282144,323,53
1282153,300,53
1282164,316,53
1282174,316,53
1282185,302,53
1282194,325,53
1282204,306,53
1282215,314,53
1282225,326,53
1282235,304,53
1282246,327,53
1282256,318,53
1282266,314,53
1282277,333,53
1282287,311,53
1282297,327,53
1282307,328,53
1282318,314,53
1282328,337,53
1282338,318,53
1282349,324,53
1282359,336,53
1282369,316,53
1282379,336,53
1282389,328,53
1282400,320,53
1282410,342,53
1282421,320,53
1282431,333,53
1282441,335,53
1282451,318,53
1282461,343,53
1282472,325,53
1282482,330,53
1282492,341,53
1282502,322,53
1282513,343,53
1282523,337,53
1282533,325,53
1282544,348,53
1282554,342,53
1282564,357,53
1282574,351,53
1282584,331,53
1282595,348,53
1282605,327,53
1282616,327,53
1282626,339,53
1282636,318,53
1282646,340,53
1282656,332,53
1282666,320,53
1282677,338,53
1282687,455,53
1282698,652,52
1282708,653,52
1282718,446,52
1282729,225,52
1282739,316,52
1282749,311,52
1282759,315,52
1282770,296,52
1282780,316,52
1282790,313,52
1282800,305,52
1282811,329,52
1282821,311,52
1282831,325,52
1282841,331,52
1282851,317,52
1282862,339,52
1282873,329,52
1282882,333,52
1282892,352,52
1282903,335,52
1282913,358,52
1282924,363,52
1282933,358,52
1282944,388,52
1282955,379,52
1282965,398,52
1282975,413,52
1282985,399,52
1282995,425,52
1283006,411,52
1283015,393,52
1283026,384,52
1283037,331,52
1283047,327,52
1283057,308,52
1283068,285,52
1283077,302,52
1283088,280,52
1283098,290,52
1283108,300,52
1283118,280,52
1283128,301,52
1283139,291,52
1283150,290,52
1283159,310,52
1283170,285,52
1283181,303,52
1283191,300,52
1283201,288,52
1283211,310,52
1283221,291,52
1283231,298,52
1283241,309,52
1283252,288,52
1283263,312,52
1283273,299,52
1283282,294,52
1283293,313,52
1283303,290,52
1283314,310,52
1283324,308,52
1283334,293,52
1283345,320,52
1283354,300,52
1283364,305,52
1283375,317,52
1283385,298,52
1283395,322,52
1283406,309,52
1283417,307,52
1283427,326,52
1283437,304,52
1283447,321,52
1283457,324,52
1283467,307,52
1283477,329,52
1283488,315,52
1283498,320,52
1283509,332,52
1283519,310,52
1283529,329,52
1283540,320,52
1283550,316,52
1283560,335,52
1283570,314,52
1283580,327,52
1283591,330,52
1283601,316,52
1283611,339,52
1283622,323,52
1283632,326,52
1283642,337,52
1283652,314,52
1283663,338,52
1283672,331,52
1283683,325,52
1283693,344,52
1283703,330,52
1283714,358,52
1283724,353,52
1283735,331,52
1283745,353,52
1283755,328,52
1283765,327,52
1283775,338,52
1283786,319,52
1283796,339,52
1283807,334,52
1283817,323,52
1283827,332,52
1283837,393,52
1283847,651,52
1283858,653,52
1283868,564,52
1283878,206,52
1283888,289,52
1283899,315,52
1283909,323,52
1283919,302,52
1283930,324,52
1283940,322,52
1283950,312,52
1283960,335,52
1283971,319,52
1283980,332,52
1283991,338,52
1284002,322,52
1284012,350,52
1284021,340,52
1284032,342,52
1284043,361,52
1284053,343,52
1284063,365,52
1284073,369,52
1284083,365,52
1284093,395,52
1284104,388,52
1284114,410,52
1284125,426,52
1284134,415,52
1284145,440,52
1284155,424,52
1284165,405,52
1284176,389,52
1284186,334,52
1284197,326,52
1284207,300,52
1284217,277,52
1284227,295,52
1284238,272,52
1284248,278,52
1284258,286,52
1284268,266,52
1284279,292,52
1284288,279,52
1284299,279,52
1284310,300,52
1284320,278,52
1284329,296,52
1284340,295,52
1284350,282,52
1284361,305,52
1284371,286,52
1284381,292,52
1284391,303,52
1284402,281,52
1284412,303,52
1284422,290,52
1284432,284,52
1284443,305,52
1284453,282,52
1284463,299,52
1284473,298,52
1284484,285,52
1284494,307,52
1284504,289,52
1284515,297,52
1284525,309,52
1284535,287,52
1284546,310,52
1284556,299,52
1284565,293,52
1284576,316,52
1284587,293,52
1284597,311,52
1284607,312,52
1284617,295,52
1284628,321,52
1284638,304,52
1284648,310,52
1284658,322,52
1284669,300,52
1284679,323,52
1284689,313,52
1284700,306,52
1284710,328,52
1284720,307,52
1284730,322,52
1284740,323,52
1284751,309,52
1284761,333,52
1284771,318,52
1284782,325,52
1284791,357,52
1284802,330,52
1284812,346,52
1284822,336,52
1284833,320,52
1284843,336,52
1284854,313,52
1284864,326,52
1284874,330,52
1284884,312,52
1284894,337,52
1284904,311,52
1284915,336,52
1284925,558,53
1284935,653,53
1284946,652,53
1284956,289,53
1284966,236,53
1284977,335,53
1284987,298,53
1284997,306,53
1285007,313,53
1285017,297,53
1285028,323,53
1285038,310,53
1285049,314,53
1285059,331,53
1285069,311,53
1285079,332,53
1285090,329,53
1285100,322,53
1285110,346,53
1285120,330,53
1285131,344,53
1285141,356,53
1285150,344,53
1285161,374,53
1285172,369,53
1285182,380,53
1285192,405,53
1285202,394,53
1285212,418,53
1285223,421,53
1285234,409,53
1285244,422,53
1285254,377,53
1285263,358,53
1285275,339,53
1285285,297,53
1285295,307,53
1285305,286,53
1285315,280,53
1285326,297,53
1285336,273,53
1285346,293,53
1285356,292,53
1285367,280,53
1285377,304,53
1285388,284,53
1285398,294,53
1285408,306,53
1285418,286,53
1285428,307,53
1285438,297,53
1285448,293,53
1285459,313,53
1285470,289,53
1285479,306,53
1285489,306,53
1285500,290,53
1285511,316,53
1285521,296,53
1285531,301,53
1285541,313,53
1285551,291,53
1285561,315,53
1285572,306,53
1285582,302,53
1285592,321,53
1285603,297,53
1285613,316,53
1285623,317,53
1285633,302,53
1285644,325,53
1285654,306,53
1285665,311,53
1285674,323,53
1285685,303,53
1285696,325,53
1285705,317,53
1285716,311,53
1285726,331,53
1285736,306,53
1285746,323,53
1285757,325,53
1285767,311,53
1285778,334,53
1285788,316,53
1285798,320,53
1285808,334,53
1285819,313,53
1285829,335,53
1285839,328,53
1285849,320,53
1285859,337,53
1285869,317,53
1285880,330,53
1285890,335,53
1285901,318,53
1285911,341,53
1285921,324,53
1285931,327,53
1285942,343,53
1285952,320,53
1285962,340,53
1285972,334,53
1285983,325,53
1285993,345,53
1286003,324,53
1286014,338,53
1286024,342,53
1286033,326,53
1286044,347,53
1286054,333,53
1286064,348,53
1286075,371,53
1286085,338,53
1286095,354,53
1286106,343,53
1286116,327,53
1286126,347,53
1286136,323,53
1286147,333,53
1286157,337,53
1286167,319,53
1286178,341,53
1286188,322,53
1286198,440,53
1286209,652,52
1286219,653,52
1286229,518,52
1286240,215,52
1286250,305,52
1286260,333,52
1286270,297,52
1286280,312,52
1286290,319,52
1286301,301,52
1286311,327,52
1286321,315,52
1286332,316,52
1286342,335,52
1286351,315,52
1286362,335,52
1286372,337,52
1286383,326,52
1286393,352,52
1286403,338,52
1286414,349,52
1286424,361,52
1286434,347,52
1286445,378,52
1286455,371,52
1286465,379,52
1286475,406,52
1286485,390,52
1286495,418,52
1286506,420,52
1286516,406,52
1286526,414,52
1286536,370,52
1286547,349,52
1286557,335,52
1286567,297,52
1286578,306,52
1286588,289,52
1286599,281,52
1286609,301,52
1286618,280,52
1286629,297,52
1286639,296,52
1286650,283,52
1286660,307,52
1286670,289,52
1286681,296,52
1286690,309,52
1286701,285,52
1286711,309,52
1286722,298,52
1286732,290,52
1286742,312,52
1286753,291,52
1286763,305,52
1286773,304,52
1286783,288,52
1286793,311,52
1286803,293,52
1286814,298,52
1286824,309,52
1286835,288,52
1286845,312,52
1286855,306,52
1286865,296,52
1286876,319,52
1286886,296,52
1286896,310,52
1286906,314,52
1286916,297,52
1286927,321,52
1286937,305,52
1286948,308,52
1286958,323,52
1286968,300,52
1286979,321,52
1286989,314,52
1286999,306,52
1287009,330,52
1287019,307,52
1287030,320,52
1287040,326,52
1287050,306,52
1287060,333,52
1287071,316,52
1287081,318,52
1287091,333,52
1287102,312,52
1287112,332,52
1287122,326,52
1287132,319,52
1287143,343,52
1287152,316,52
1287163,326,52
1287174,340,52
1287183,320,52
1287194,342,52
1287204,329,52
1287215,325,52
1287225,343,52
1287235,319,52
1287245,339,52
1287256,336,52
1287265,325,52
1287276,349,52
1287286,334,52
1287296,357,52
1287306,355,52
1287317,331,52
1287327,349,52
1287337,330,52
1287347,327,52
1287358,343,52
1287368,320,52
1287378,335,52
1287389,334,52
1287399,322,52
1287410,333,52
1287420,398,52
1287430,652,51
1287440,653,51
1287451,573,51
1287461,207,51
1287471,289,51
1287481,313,51
1287492,324,51
1287502,301,51
1287512,321,51
1287523,320,51
1287533,309,51
1287543,333,51
1287553,317,51
1287563,328,51
1287574,338,51
1287584,321,51
1287594,345,51
1287605,341,51
1287615,338,51
1287625,360,51
1287635,342,51
1287646,363,51
1287655,370,51
1287666,363,51
1287677,394,51
1287686,387,51
1287697,405,51
1287707,429,51
1287718,413,51
1287728,442,51
1287739,432,51
1287748,411,51
1287758,402,51
1287769,347,51
1287779,333,51
1287790,311,51
1287800,279,51
1287810,297,51
1287820,275,51
1287830,278,51
1287841,290,51
1287851,266,51
1287861,290,51
1287871,283,51
1287881,276,51
1287892,301,51
1287902,279,51
1287913,294,51
1287923,297,51
1287933,281,51
1287943,306,51
1287953,288,51
1287964,290,51
1287974,305,51
1287984,280,51
1287994,301,51
1288004,295,51
1288016,286,51
1288026,304,51
1288036,282,51
1288046,295,51
1288057,301,51
1288067,283,51
1288077,307,51
1288088,293,51
1288097,295,51
1288107,310,51
1288118,285,51
1288128,307,51
1288139,304,51
1288148,293,51
1288159,315,51
1288169,297,51
1288179,308,51
1288190,314,51
1288200,297,51
1288210,320,51
1288221,308,51
1288231,306,51
1288241,323,51
1288251,301,51
1288262,319,51
1288272,317,51
1288282,308,51
1288292,328,51
1288302,307,51
1288313,319,51
1288324,327,51
1288334,306,51
1288344,333,51
1288354,321,51
1288365,319,51
1288374,335,51
1288385,314,51
1288395,344,51
1288405,348,51
1288416,325,51
1288426,347,51
1288436,320,51
1288446,322,51
1288456,329,51
1288466,310,51
1288477,332,51
1288487,318,51
1288498,315,51
1288508,333,51
1288518,303,51
1288529,431,51
1288539,652,51
1288549,653,51
1288559,531,51
1288569,188,51
1288579,300,51
1288589,321,51
1288600,287,51
1288610,313,51
1288621,304,51
1288631,301,51
1288641,324,51
1288652,306,51
1288662,323,51
1288672,326,51
1288683,311,51
1288693,337,51
1288703,322,51
1288713,331,51
1288724,346,51
1288734,328,51
1288744,354,51
1288754,350,51
1288764,351,51
1288775,378,51
1288785,365,51
1288795,390,51
1288806,403,51
1288816,399,51
1288827,425,51
1288836,413,51
1288846,415,51
1288857,413,51
1288868,364,51
1288877,355,51
1288888,322,51
1288897,294,51
1288909,303,51
1288919,276,51
1288929,288,51
1288939,290,51
1288949,275,51
1288959,300,51
1288970,283,51
1288980,288,51
1288991,303,51
1289001,282,51
1289011,306,51
1289021,299,51
1289032,290,51
1289042,312,51
1289052,290,51
1289062,301,51
1289073,308,51
1289082,291,51
1289093,312,51
1289103,296,51
1289113,296,51
1289123,312,51
1289134,290,51
1289144,310,51
1289154,305,51
1289165,293,51
1289175,315,51
1289186,296,51
1289196,309,51
1289206,314,51
1289216,297,51
1289227,320,51
1289237,308,51
1289247,306,51
1289257,325,51
1289268,300,51
1289278,319,51
1289288,318,51
1289298,304,51
1289308,329,51
1289319,309,51
1289329,318,51
1289339,326,51
1289349,307,51
1289360,330,51
1289370,318,51
1289380,315,51
1289390,334,51
1289401,310,51
1289411,328,51
1289421,329,51
1289431,312,51
1289442,337,51
1289452,318,51
1289462,326,51
1289472,337,51
1289483,315,51
1289493,336,51
1289504,327,51
1289514,325,51
1289524,343,51
1289535,320,51
1289545,337,51
1289555,335,51
1289565,322,51
1289575,345,51
1289585,324,51
1289596,333,51
1289606,347,51
1289616,322,51
1289626,343,51
1289637,342,51
1289647,348,51
1289657,360,51
1289667,335,51
1289678,347,51
1289688,341,51
1289699,322,51
1289709,343,51
1289719,324,51
1289729,328,51
1289740,341,51
1289750,321,51
1289760,332,51
1289771,394,51
1289780,640,51
1289791,653,51
1289801,632,51
1289811,220,51
1289821,297,51
1289832,315,51
1289842,317,51
1289852,302,51
1289862,310,51
1289873,325,51
1289883,305,51
1289894,325,51
1289904,321,51
1289914,315,51
1289924,338,51
1289935,320,51
1289945,337,51
1289955,343,51
1289966,328,51
1289976,354,51
1289987,342,51
1289997,347,51
1290007,367,51
1290017,352,51
1290027,380,51
1290038,384,51
1290048,386,51
1290058,416,51
1290069,402,51
1290079,417,51
1290089,422,51
1290099,396,51
1290109,399,51
1290119,357,51
1290130,332,51
1290140,325,51
1290150,289,51
1290160,297,51
1290171,292,51
1290182,278,51
1290192,305,51
1290202,284,51
1290212,292,51
1290223,302,51
1290233,283,51
1290243,306,51
1290254,294,51
1290264,290,51
1290274,307,51
1290284,286,51
1290294,306,51
1290304,302,51
1290314,288,51
1290325,308,51
1290335,288,51
1290345,299,51
1290356,306,51
1290366,287,51
1290376,311,51
1290387,298,51
1290397,294,51
1290408,316,51
1290418,293,51
1290428,310,51
1290438,310,51
1290449,298,51
1290459,324,51
1290469,299,51
1290479,305,51
1290489,318,51
1290500,298,51
1290510,321,51
1290520,311,51
1290530,307,51
1290540,325,51
1290550,303,51
1290561,321,51
1290571,324,51
1290582,307,51
1290592,330,51
1290602,313,51
1290612,317,51
1290622,330,51
1290633,311,51
1290643,333,51
1290654,321,51
1290664,315,51
1290674,338,51
1290685,317,51
1290695,330,51
1290705,330,51
1290715,315,51
1290725,339,51
1290735,322,51
1290746,325,51
1290756,339,51
1290766,317,51
1290776,340,51
1290786,333,51
1290797,327,51
1290808,348,51
1290817,323,51
1290827,340,51
1290838,358,51
1290848,345,51
1290859,358,51
1290869,344,51
1290879,337,51
1290890,347,51
1290900,323,51
1290910,342,51
1290920,335,51
1290930,325,51
1290940,347,51
1290951,318,51
1290962,344,51
1290972,544,51
1290981,653,51
1290992,653,51
1291002,334,51
1291013,231,51
1291023,335,51
1291034,303,51
1291044,316,51
1291054,315,51
1291064,305,51
1291074,331,51
1291084,311,51
1291095,324,51
1291105,335,51
1291115,316,51
1291125,341,51
1291135,332,51
1291146,331,51
1291156,350,51
1291166,333,51
1291177,355,51
1291187,356,51
1291197,351,51
1291208,380,51
1291218,370,51
1291228,386,51
1291239,405,51
1291249,393,51
1291259,427,51
1291269,420,51
1291279,422,51
1291290,432,51
1291300,390,51
1291311,379,51
1291321,347,51
1291331,308,51
1291341,314,51
1291352,280,51
1291362,285,51
1291372,291,51
1291382,270,51
1291392,294,51
1291403,283,51
1291413,279,51
1291424,299,51
1291434,278,51
1291444,296,51
1291454,297,51
1291464,282,51
1291475,307,51
1291485,286,51
1291495,294,51
1291505,304,51
1291516,283,51
1291526,308,51
1291536,293,51
1291546,287,51
1291556,307,51
1291567,283,51
1291578,298,51
1291587,299,51
1291598,286,51
1291608,309,51
1291618,291,51
1291628,297,51
1291639,311,51
1291649,290,51
1291659,313,51
1291669,303,51
1291680,296,51
1291691,315,51
1291701,295,51
1291711,310,51
1291721,314,51
1291731,298,51
1291741,322,51
1291752,303,51
1291762,310,51
1291772,325,51
1291782,300,51
1291793,324,51
1291804,315,51
1291814,308,51
1291824,330,51
1291834,309,51
1291845,325,51
1291855,326,51
1291865,307,51
1291875,339,51
1291885,337,51
1291896,332,51
1291906,343,51
1291916,315,51
1291927,329,51
1291937,321,51
1291947,308,51
1291958,332,51
1291968,310,51
1291978,324,51
1291988,330,51
1291999,300,51
1292009,391,51
1292019,638,51
1292029,653,51
1292040,608,51
1292050,181,51
1292060,289,51
1292070,317,51
1292081,295,51
1292090,317,51
1292101,297,51
1292112,311,51
1292121,319,51
1292132,301,51
1292142,330,51
1292153,316,51
1292163,321,51
1292173,342,51
1292182,320,51
1292194,343,51
1292204,341,51
1292214,336,51
1292225,361,51
1292235,345,51
1292245,359,51
1292255,374,51
1292265,362,51
1292275,396,51
1292286,394,51
1292296,402,51
1292307,427,51
1292317,409,51
1292327,425,51
1292337,410,51
1292348,368,51
1292358,364,51
1292368,317,51
1292379,303,51
1292389,299,51
1292398,273,51
1292409,293,51
1292419,281,51
1292430,280,51
1292440,298,51
1292450,274,51
1292460,293,51
1292470,296,51
1292480,283,51
1292491,307,51
1292501,288,51
1292512,293,51
1292521,304,51
1292532,284,51
1292543,306,51
1292553,295,51
1292563,292,51
1292573,312,51
1292583,290,51
1292594,304,51
1292604,306,51
1292614,287,51
1292624,311,51
1292635,292,51
1292646,297,51
1292655,310,51
1292665,288,51
1292675,313,51
1292686,305,51
1292697,297,51
1292707,319,51
1292717,295,51
1292728,310,51
1292738,313,51
1292748,298,51
1292757,321,51
1292769,305,51
1292779,309,51
1292788,322,51
1292798,302,51
1292809,325,51
1292820,317,51
1292830,309,51
1292840,331,51
1292850,310,51
1292861,325,51
1292870,331,51
1292881,311,51
1292891,336,51
1292902,320,51
1292912,321,51
1292922,336,51
1292933,312,51
1292943,334,51
1292953,325,51
1292964,315,51
1292973,338,51
1292984,317,51
1292994,330,51
1293005,338,51
1293014,317,51
1293025,343,51
1293036,341,51
1293045,347,51
1293056,352,51
1293065,329,51
1293076,342,51
1293087,332,51
1293096,318,51
1293107,340,51
1293117,320,51
1293127,331,51
1293138,337,51
1293149,312,51
1293158,336,51
1293169,462,51
1293179,652,51
1293189,653,51
1293199,458,51
1293209,219,51
1293220,326,51
1293230,308,51
1293241,319,51
1293250,300,51
1293260,310,51
1293272,320,51
1293282,303,51
1293292,327,51
1293302,318,51
1293312,318,51
1293323,340,51
1293333,317,51
1293343,338,51
1293354,341,51
1293364,330,51
1293374,357,51
1293384,339,51
1293394,351,51
1293404,368,51
1293415,353,51
1293425,385,51
1293435,382,51
1293445,387,51
1293455,416,51
1293466,398,51
1293476,416,51
1293486,417,51
1293497,389,51
1293507,391,51
1293517,343,51
1293528,326,51
1293538,318,51
1293548,283,51
1293559,300,51
1293569,287,51
1293579,279,51
1293589,299,51
1293599,277,51
1293609,295,51
1293620,297,51
1293630,281,51
1293640,306,51
1293650,290,51
1293661,297,51
1293671,308,51
1293681,286,51
1293692,307,51
1293702,299,51
1293712,288,51
1293723,310,51
1293733,288,51
1293743,302,51
1293754,305,51
1293764,287,51
1293774,311,51
1293784,296,51
1293795,296,51
1293805,313,51
1293816,290,51
1293826,312,51
1293836,306,51
1293846,294,51
1293857,318,51
1293867,297,51
1293877,312,51
1293887,315,51
1293897,299,51
1293907,326,51
1293918,308,51
1293928,309,51
