Timestamp,ECGValue,BPM
118786,324,63
118796,316,63
118807,323,63
118817,323,63
118827,317,63
118838,325,63
118848,317,63
118858,321,63
118868,324,63
118879,326,63
118889,335,63
118898,328,63
118910,321,63
118920,329,63
118930,318,63
118941,326,63
118951,324,63
118960,318,63
118970,327,63
118982,312,63
118992,277,63
119002,312,63
119012,513,63
119023,652,63
119033,651,63
119044,306,63
119053,312,63
119064,321,63
119074,307,63
119083,309,63
119095,303,63
119105,317,63
119115,309,63
119125,315,63
119135,321,63
119146,315,63
119154,328,63
119167,324,63
119175,326,63
119186,337,63
119197,330,63
119205,342,63
119217,346,63
119228,344,63
119238,361,63
119248,355,63
119258,363,63
119268,369,63
119278,363,63
119288,372,63
119299,351,63
119307,332,63
119320,323,63
119329,301,63
119340,306,63
119350,302,63
119362,297,63
119371,307,63
119380,300,63
119392,305,63
119401,310,63
119411,302,63
119423,313,63
119433,308,63
119443,307,63
119454,316,63
119463,304,63
119474,312,63
119484,312,63
119495,306,63
119505,316,63
119512,306,63
119524,311,63
119535,314,63
119547,304,63
119556,316,63
119565,310,63
119577,309,63
119587,317,63
119596,307,63
119608,316,63
119618,315,63
119628,309,63
119638,321,63
119649,311,63
119658,317,63
119669,322,63
119679,313,63
119690,325,63
119700,317,63
119710,318,63
119720,325,63
119730,315,63
119742,323,63
119750,324,63
119762,318,63
119772,331,63
119781,317,63
119792,324,63
119803,327,63
119812,319,63
119823,340,63
119834,332,63
119844,328,63
119854,332,63
119864,321,63
119875,328,63
119885,326,63
119894,320,63
119904,332,63
119915,320,63
119925,312,63
119935,278,63
119946,336,63
119956,570,64
119964,652,64
119977,641,64
119985,280,64
119997,320,64
120006,323,64
120018,306,64
120029,304,64
120038,317,64
120049,309,64
120060,315,64
120068,323,64
120081,315,64
120090,328,64
120101,324,64
120111,326,64
120121,336,64
120132,328,64
120141,339,64
120151,343,64
120162,341,64
120173,357,64
120183,352,64
120193,360,64
120203,366,64
120213,360,64
120223,374,64
120233,365,64
120243,349,64
120253,337,64
120263,311,64
120275,309,64
120285,304,64
120295,295,64
120306,306,64
120316,297,64
120326,303,64
120336,307,64
120346,301,64
120357,312,64
120368,306,64
120378,305,64
120388,314,64
120397,303,64
120407,312,64
120419,311,64
120429,304,64
120440,315,64
120449,306,64
120460,310,64
120470,313,64
120480,302,64
120491,314,64
120501,311,64
120511,308,64
120521,316,64
120532,307,64
120542,317,64
120552,315,64
120562,309,64
120572,320,64
120583,312,64
120594,316,64
120604,320,64
120614,311,64
120624,323,64
120634,320,64
120644,318,64
120653,326,64
120665,315,64
120673,323,64
120685,323,64
120694,318,64
120706,328,64
120715,319,64
120724,322,64
120736,327,64
120747,317,64
120757,331,64
120766,332,64
120779,332,64
120787,334,64
120799,317,64
120808,330,64
120819,327,64
120829,317,64
120839,328,64
120849,320,64
120861,320,64
120871,302,64
120881,265,64
120891,398,64
120902,610,65
120910,652,65
120922,520,65
120930,247,65
120941,335,65
120952,310,65
120961,299,65
120972,313,65
120981,304,65
120993,311,65
121004,319,65
121014,312,65
121023,325,65
121035,322,65
121046,320,65
121055,334,65
121064,327,65
121075,337,65
121085,341,65
121097,340,65
121107,356,65
121117,351,65
121127,358,65
121137,369,65
121146,363,65
121154,376,65
121167,370,65
121176,362,65
121189,351,65
121197,319,65
121206,311,65
121219,302,65
121227,291,65
121240,302,65
121249,295,65
121261,297,65
121271,305,65
121281,296,65
121291,307,65
121302,303,65
121312,302,65
121322,313,65
121332,303,65
121342,309,65
121352,310,65
121362,303,65
121372,315,65
121384,305,65
121394,310,65
121405,314,65
121414,302,65
121425,314,65
121435,311,65
121444,308,65
121456,318,65
121465,307,65
121475,318,65
121485,316,65
121497,310,65
121507,321,65
121517,313,65
121527,316,65
121536,322,65
121549,312,65
121557,325,65
121568,317,65
121579,318,65
121587,326,65
121600,317,65
121608,325,65
121617,322,65
121629,317,65
121639,329,65
121650,319,65
121661,334,65
121670,338,65
121681,327,65
121691,333,65
121702,324,65
121712,323,65
121722,332,65
121731,320,65
121744,327,65
121753,326,65
121763,316,65
121771,293,65
121783,304,65
121794,507,65
121804,651,65
121814,649,65
121824,303,65
121834,297,65
121846,328,65
121856,312,65
121866,306,65
121875,316,65
121885,319,65
121897,315,65
121906,328,65
121916,321,65
121926,326,65
121938,333,65
121949,326,65
121958,341,65
121969,337,65
121980,339,65
121988,352,65
122000,346,65
122010,359,65
122019,364,65
122031,363,65
122040,378,65
122050,371,65
122061,378,65
122071,376,65
122081,351,65
122091,341,65
122100,317,65
122112,304,65
122121,308,65
122133,295,65
122142,304,65
122150,302,65
122163,297,65
122171,309,65
122184,300,65
122192,306,65
122205,311,65
122215,303,65
122225,314,65
122234,307,65
122246,307,65
122257,316,65
122265,306,65
122277,313,65
122287,313,65
122298,305,65
122308,317,65
122318,306,65
122328,311,65
122338,315,65
122348,304,65
122358,315,65
122370,309,65
122378,308,65
122389,317,65
122399,305,65
122410,314,65
122420,313,65
122431,308,65
122440,320,65
122451,310,65
122462,315,65
122472,320,65
122481,309,65
122493,321,65
122502,315,65
122510,314,65
122522,324,65
122531,313,65
122544,322,65
122552,321,65
122564,312,65
122573,326,65
122585,313,65
122594,327,65
122602,335,65
122615,322,65
122626,330,65
122636,320,65
122647,321,65
122657,328,65
122666,316,65
122677,323,65
122687,320,65
122698,314,65
122708,298,65
122719,266,65
122729,413,65
122739,642,65
122749,652,65
122759,523,65
122770,265,65
122780,333,65
122789,312,65
122799,298,65
122810,308,65
122821,310,65
122831,304,65
122841,320,65
122852,311,65
122861,317,65
122873,324,65
122883,316,65
122893,330,65
122903,327,65
122913,329,65
122922,342,65
122932,336,65
122944,350,65
122954,354,65
122964,352,65
122974,368,65
122984,361,65
122994,370,65
123004,376,65
123014,358,65
123026,350,65
123036,326,65
123046,312,65
123057,313,65
123067,299,65
123077,306,65
123088,305,65
123098,299,65
123109,311,65
123119,303,65
123128,308,65
123140,313,65
123150,302,65
123159,316,65
123170,310,65
123180,308,65
123190,317,65
123200,305,65
123210,314,65
123220,313,65
123230,306,65
123240,316,65
123252,307,65
123261,312,65
123273,316,65
123280,306,65
123293,318,65
123303,311,65
123313,310,65
123324,320,65
123334,309,65
123344,318,65
123354,316,65
123365,311,65
123375,324,65
123384,313,65
123392,319,65
123405,324,65
123416,314,65
123426,327,65
123436,320,65
123447,319,65
123457,328,65
123467,317,65
123477,327,65
123488,327,65
123498,321,65
123509,328,65
123518,321,65
123529,323,65
123540,334,65
123550,328,65
123559,339,65
123570,328,65
123579,324,65
123591,332,65
123601,319,65
123610,328,65
123622,326,65
123631,318,65
123642,329,65
123652,292,65
123662,273,65
123673,420,65
123683,636,65
123693,652,65
123703,527,65
123713,264,65
123723,344,65
123733,302,65
123745,308,65
123753,309,65
123766,306,65
123776,317,65
123785,310,65
123795,317,65
123805,324,65
123816,316,65
123827,328,65
123837,324,65
123847,328,65
123858,340,65
123868,333,65
123879,346,65
123888,350,65
123899,349,65
123908,366,65
123920,361,65
123930,368,65
123940,376,65
123949,367,65
123957,371,65
123970,347,65
123978,325,65
123991,318,65
123999,300,65
124008,306,65
124021,305,65
124033,297,65
124041,308,65
124052,302,65
124063,306,65
124072,311,65
124084,301,65
124093,313,65
124103,309,65
124115,309,65
124124,317,65
124135,302,65
124145,312,65
124155,313,65
124165,307,65
124175,316,65
124187,306,65
124197,308,65
124207,314,65
124217,305,65
124227,317,65
124237,310,65
124247,309,65
124258,319,65
124268,306,65
124278,316,65
124289,317,65
124298,309,65
124308,321,65
124320,312,65
124330,316,65
124340,322,65
124350,311,65
124360,323,65
124371,319,65
124381,319,65
124391,326,65
124401,313,65
124413,322,65
124422,324,65
124432,316,65
124443,328,65
124451,317,65
124463,323,65
124472,335,65
124485,323,65
124493,335,65
124501,324,65
124514,323,65
124525,333,65
124535,318,65
124544,324,65
124556,325,65
124565,318,65
124574,324,65
124586,277,65
124595,309,65
124608,522,65
124616,651,65
124628,649,65
124637,290,65
124646,302,65
124659,334,65
124669,299,65
124679,313,65
124689,312,65
124699,308,65
124709,320,65
124721,313,65
124729,321,65
124738,328,65
124751,320,65
124758,333,65
124771,331,65
124780,333,65
124792,342,65
124800,339,65
124813,352,65
124821,354,65
124830,356,65
124843,373,65
124852,366,65
124864,372,65
124874,383,65
124883,367,65
124894,360,65
124902,329,65
124915,313,65
124925,310,65
124936,287,65
124946,298,65
124956,297,65
124965,290,65
124974,300,65
124987,294,65
124996,298,65
125004,304,65
125017,297,65
125026,308,65
125039,303,65
125048,305,65
125056,311,65
125069,301,65
125080,309,65
125088,309,65
125100,305,65
125110,316,65
125121,304,65
125131,308,65
125141,312,65
125152,306,65
125162,315,65
125171,307,65
125181,308,65
125192,319,65
125202,307,65
125213,316,65
125223,317,65
125233,309,65
125243,322,65
125253,313,65
125264,315,65
125274,321,65
125284,311,65
125294,321,65
125305,321,65
125315,324,65
125325,332,65
125336,318,65
125346,326,65
125356,323,65
125366,316,65
125377,329,65
125387,317,65
125396,320,65
125406,326,65
125418,299,65
125428,285,65
125438,383,65
125448,596,65
125458,651,65
125470,487,65
125479,250,65
125489,332,65
125499,308,65
125511,316,65
125521,311,65
125530,316,65
125542,322,65
125550,314,65
125562,328,65
125571,325,65
125582,326,65
125593,336,65
125602,330,65
125612,340,65
125623,343,65
125633,341,65
125643,356,65
125653,353,65
125664,363,65
125675,373,65
125685,367,65
125695,382,65
125704,380,65
125714,378,65
125726,373,65
125736,336,65
125746,323,65
125756,308,65
125768,294,65
125778,303,65
125787,291,65
125797,294,65
125807,299,65
125818,292,65
125828,303,65
125838,299,65
125848,298,65
125858,308,65
125870,298,65
125880,308,65
125890,307,65
125901,300,65
125911,313,65
125920,302,65
125931,306,65
125941,311,65
125950,300,65
125963,312,65
125973,304,65
125983,303,65
125993,313,65
126002,301,65
126014,311,65
126024,310,65
126033,304,65
126044,315,65
126055,306,65
126064,312,65
126074,316,65
126085,306,65
126095,319,65
126106,312,65
126116,312,65
126126,318,65
126136,311,65
126148,320,65
126157,320,65
126168,323,65
126178,332,65
126188,320,65
126198,320,65
126207,324,65
126218,314,65
126228,324,65
126239,316,65
126249,315,65
126260,322,65
126270,306,65
126281,272,65
126289,310,65
126301,520,65
126311,652,65
126322,651,65
126332,311,65
126342,313,65
126351,314,65
126363,305,65
126370,301,65
126382,301,65
126393,314,65
126404,306,65
126414,313,65
126423,313,65
126433,312,65
126445,324,65
126455,317,65
126465,322,65
126474,330,65
126486,324,65
126496,339,65
126505,337,65
126516,341,65
126526,356,65
126536,349,65
126548,362,65
126557,363,65
126566,361,65
126576,369,65
126588,343,65
126598,328,65
126609,315,65
126618,296,65
126628,305,65
126640,295,65
126649,296,65
126659,305,65
126670,294,65
126680,305,65
126690,304,65
126700,299,65
126712,312,65
126722,302,65
126732,307,65
126741,311,65
126753,302,65
126763,315,65
126773,308,65
126783,308,65
126793,317,65
126804,303,65
126815,314,65
126823,311,65
126835,306,65
126845,318,65
126856,308,65
126866,313,65
126875,318,65
126886,307,65
126897,319,65
126906,313,65
126916,312,65
126926,322,65
126938,311,65
126948,320,65
126958,320,65
126968,314,65
126979,325,65
126988,317,65
126998,318,65
127008,322,65
127018,314,65
127030,325,65
127041,329,65
127051,326,65
127061,335,65
127071,321,65
127081,328,65
127091,324,65
127101,318,65
127110,329,65
127123,316,65
127133,323,65
127142,325,65
127152,283,65
127163,285,65
127174,445,65
127183,650,66
127194,653,66
127204,457,66
127214,281,66
127225,337,66
127235,301,66
127245,313,66
127255,304,66
127264,311,66
127276,317,66
127285,309,66
127295,323,66
127303,320,66
127316,321,66
127327,333,66
127337,323,66
127347,335,66
127358,337,66
127369,335,66
127379,351,66
127389,346,66
127400,356,66
127410,367,66
127420,360,66
127430,376,66
127440,372,66
127450,372,66
127460,369,66
127468,336,66
127481,328,66
127491,314,66
127501,302,66
127513,310,66
127523,300,66
127533,306,66
127542,311,66
127553,301,66
127564,315,66
127574,309,66
127584,307,66
127594,317,66
127604,307,66
127614,316,66
127624,315,66
127635,308,66
127646,320,66
127656,311,66
127667,314,66
127676,316,66
127686,308,66
127696,319,66
127706,311,66
127717,312,66
127728,321,66
127737,311,66
127745,321,66
127759,318,66
127769,312,66
127778,324,66
127789,314,66
127800,318,66
127809,323,66
127820,316,66
127830,324,66
127839,319,66
127851,318,66
127862,328,66
127870,315,66
127882,325,66
127892,327,66
127903,318,66
127912,340,66
127922,329,66
127934,334,66
127943,333,66
127953,320,66
127963,332,66
127973,325,66
127985,321,66
127995,331,66
128005,317,66
128015,326,66
128025,295,66
128035,274,66
128045,438,66
128057,644,66
128066,652,66
128076,457,66
128086,262,66
128097,346,66
128108,306,66
128118,305,66
128128,317,66
128138,306,66
128148,317,66
128158,320,66
128166,314,66
128179,331,66
128188,322,66
128200,329,66
128211,336,66
128221,330,66
128230,343,66
128238,342,66
128251,347,66
128262,360,66
128272,355,66
128281,369,66
128292,373,66
128302,371,66
128313,386,66
128324,374,66
128334,367,66
128342,347,66
128353,318,66
128365,317,66
128375,304,66
128385,302,66
128396,308,66
128406,298,66
128416,306,66
128426,307,66
128436,303,66
128446,315,66
128456,307,66
128466,310,66
128478,316,66
128487,305,66
128495,317,66
128508,309,66
128518,311,66
128529,319,66
128539,306,66
128550,315,66
128560,314,66
128569,307,66
128579,318,66
128589,308,66
128600,314,66
128611,318,66
128620,308,66
128630,319,66
128642,313,66
128651,312,66
128662,323,66
128672,311,66
128681,319,66
128692,319,66
128704,312,66
128714,323,66
128724,313,66
128734,320,66
128744,319,66
128754,320,66
128764,333,66
128774,325,66
128784,320,66
128796,328,66
128806,315,66
128816,323,66
128826,321,66
128835,316,66
128843,326,66
128857,316,66
128867,294,66
128877,280,66
128887,415,66
128898,640,67
128908,652,67
128919,449,67
128927,265,67
128940,328,67
128950,310,67
128959,306,67
128969,304,67
128979,317,67
128991,309,67
129001,316,67
129012,322,67
129022,315,67
129032,329,67
129042,324,67
129052,326,67
129062,338,67
129072,329,67
129082,342,67
129092,345,67
129103,345,67
129113,362,67
129124,357,67
129135,365,67
129143,373,67
129154,366,67
129165,377,67
129176,355,67
129185,333,67
129196,322,67
129206,299,67
129216,302,67
129226,299,67
129236,291,67
129247,302,67
129258,292,67
129268,297,67
129278,303,67
129288,295,67
129298,308,67
129309,303,67
129319,303,67
129328,314,67
129338,301,67
129349,311,67
129360,309,67
129370,302,67
129380,314,67
129391,303,67
129401,308,67
129412,311,67
129422,302,67
129431,314,67
129442,308,67
129453,308,67
129462,317,67
129472,307,67
129482,317,67
129493,315,67
129503,309,67
129514,323,67
129524,312,67
129534,318,67
129545,321,67
129555,313,67
129566,325,67
129576,318,67
129586,318,67
129597,327,67
129607,315,67
129617,322,67
129627,323,67
129637,316,67
129647,336,67
129657,326,67
129667,329,67
129679,329,67
129689,320,67
129699,330,67
129709,323,67
129718,320,67
129729,328,67
129739,317,67
129750,325,67
129760,291,67
129768,277,67
129780,455,67
129791,650,67
129801,652,67
129811,460,67
129821,272,67
129831,341,67
129842,305,67
129853,304,67
129863,314,67
129873,305,67
129883,316,67
129893,318,67
129904,312,67
129914,326,67
129925,318,67
129935,325,67
129944,331,67
129955,325,67
129966,340,67
129976,338,67
129987,341,67
129996,355,67
130006,348,67
130017,362,67
130028,363,67
130038,361,67
130048,376,67
130058,366,67
130069,360,67
130077,345,67
130089,316,67
130099,315,67
130109,304,67
130120,300,67
130130,308,67
130140,298,67
130151,307,67
130159,307,67
130171,301,67
130180,315,67
130192,305,67
130202,309,67
130212,314,67
130222,304,67
130232,316,67
130242,308,67
130254,307,67
130262,316,67
130274,304,67
130284,312,67
130294,310,67
130304,305,67
130315,315,67
130325,306,67
130336,310,67
130346,315,67
130356,305,67
130366,316,67
130376,310,67
130386,311,67
130397,320,67
130407,308,67
130417,317,67
130427,316,67
130435,310,67
130447,322,67
130458,312,67
130469,316,67
130478,321,67
130490,311,67
130500,323,67
130509,315,67
130519,316,67
130530,323,67
130541,320,67
130550,333,67
130561,331,67
130571,321,67
130582,328,67
130592,319,67
130602,323,67
130613,325,67
130623,315,67
130632,328,67
130643,320,67
130653,300,67
130664,274,67
130675,365,67
130684,604,67
130695,652,67
130705,600,67
130715,271,67
130726,328,67
130736,312,67
130745,306,67
130757,299,67
130767,312,67
130776,308,67
130787,312,67
130797,323,67
130807,315,67
130817,325,67
130827,325,67
130837,322,67
130848,337,67
130858,330,67
130868,339,67
130880,349,67
130890,344,67
130900,359,67
130910,357,67
130920,362,67
130931,374,67
130940,365,67
130951,376,67
130961,368,67
130972,343,67
130982,332,67
130992,310,67
131001,306,67
131012,307,67
131022,296,67
131033,308,67
131044,302,67
131053,300,67
131064,310,67
131073,301,67
131085,308,67
131093,308,67
131106,304,67
131114,315,67
131125,304,67
131136,309,67
131144,312,67
131157,304,67
131165,315,67
131178,309,67
131186,309,67
131195,315,67
131207,304,67
131217,312,67
131227,312,67
131238,306,67
131249,320,67
131259,308,67
131270,312,67
131280,319,67
131290,307,67
131300,318,67
131310,313,67
131320,314,67
131330,323,67
131341,311,67
131351,322,67
131361,320,67
131371,312,67
131383,326,67
131391,320,67
131404,320,67
131413,326,67
131423,314,67
131433,329,67
131443,334,67
131453,333,67
131462,337,67
131475,322,67
131485,331,67
131496,327,67
131506,319,67
131516,332,67
131525,321,67
131535,326,67
131547,322,67
131557,272,67
131567,336,67
131576,548,67
131588,651,67
131598,630,67
131608,256,67
131618,321,67
131628,324,67
131638,302,67
131648,319,67
131659,309,67
131669,316,67
131679,322,67
131690,316,67
131700,328,67
131710,324,67
131722,326,67
131732,338,67
131741,330,67
131751,341,67
131762,344,67
131773,344,67
131781,362,67
131794,356,67
131804,365,67
131813,376,67
131823,370,67
131833,385,67
131844,381,67
131855,374,67
131864,364,67
131876,328,67
131885,319,67
131896,310,67
131905,299,67
131916,308,67
131926,298,67
131936,301,67
131947,309,67
131958,300,67
131968,313,67
131977,308,67
131985,308,67
131997,316,67
132009,305,67
132018,316,67
132029,314,67
132039,308,67
132049,321,67
132060,309,67
132068,312,67
132080,317,67
132090,306,67
132100,317,67
132110,310,67
132122,311,67
132131,318,67
132143,308,67
132152,318,67
132163,317,67
132173,310,67
132183,323,67
132193,312,67
132204,317,67
132214,323,67
132224,312,67
132234,324,67
132244,318,67
132254,315,67
132264,325,67
132276,311,67
132286,329,67
132296,332,67
132306,325,67
132316,332,67
132327,318,67
132337,323,67
132347,325,67
132358,315,67
132367,325,67
132377,318,67
132389,317,67
132399,306,67
132409,262,67
132419,380,67
132428,604,68
132440,652,68
132449,573,68
132461,250,68
132471,332,68
132481,313,68
132491,297,68
132502,310,68
132512,304,68
132522,307,68
132533,318,68
132543,308,68
132551,318,68
132563,320,68
132573,315,68
132583,330,68
132594,323,68
132604,331,68
132615,338,68
132624,333,68
132635,348,68
132645,348,68
132655,353,68
132665,366,68
132675,358,68
132685,370,68
132697,371,68
132706,355,68
132716,347,68
132726,318,68
132738,309,68
132748,306,68
132756,294,68
132768,304,68
132779,298,68
132789,298,68
132798,308,68
132808,298,68
132819,309,68
132830,309,68
132840,303,68
132851,314,68
132861,305,68
132870,309,68
132881,313,68
132890,304,68
132901,314,68
132911,308,68
132923,306,68
132932,316,68
132942,305,68
132953,314,68
132963,312,68
132974,307,68
132984,318,68
132994,310,68
133003,314,68
133015,319,68
133025,309,68
133035,320,68
133045,315,68
133055,313,68
133066,322,68
133075,310,68
133086,319,68
133097,320,68
133107,313,68
133117,326,68
133127,314,68
133137,321,68
133149,324,68
133159,316,68
133168,337,68
133177,329,68
133189,326,68
133199,331,68
133209,317,68
133219,327,68
133231,325,68
133240,316,68
133250,327,68
133261,317,68
133271,313,68
133282,276,68
133292,307,68
133302,533,69
133312,652,69
133322,650,69
133333,308,69
133343,306,69
133353,326,69
133363,305,69
133373,300,69
