Timestamp,ECGValue,BPM
61326,303,69
61343,339,69
61353,274,69
61363,332,69
61373,308,69
61380,285,69
61391,347,69
61404,282,69
61415,315,69
61421,331,69
61435,279,69
61445,348,69
61454,303,69
61466,304,69
61475,351,69
61486,285,69
61496,339,69
61505,324,69
61517,292,69
61521,352,69
61537,294,69
61548,326,69
61555,344,69
61569,291,69
61574,354,69
61588,310,69
61599,309,69
61609,356,69
61620,290,69
61631,345,69
61638,334,69
61638,298,69
61655,361,69
61671,305,69
61682,329,69
61688,353,69
61702,294,69
61712,356,69
61720,325,69
61732,315,69
61738,364,69
61738,304,69
61754,356,69
61773,352,69
61784,313,69
61795,375,69
61804,307,69
61815,325,69
61821,353,69
61835,294,69
61838,354,69
61854,320,69
61866,309,69
61875,361,69
61887,301,69
61897,344,69
61904,345,69
61918,302,69
61928,366,69
61938,322,69
61938,366,69
61954,512,68
61968,457,68
61979,362,68
61987,268,68
61999,307,68
62004,357,68
62020,297,68
62030,338,68
62038,344,68
62038,299,68
62061,367,68
62071,317,68
62079,328,68
62089,366,68
62102,303,68
62104,368,68
62122,344,68
62133,328,68
62143,391,68
62153,335,68
62164,381,68
62174,402,68
62178,359,68
62189,425,68
62204,378,68
62216,361,68
62221,378,68
62236,299,68
62237,339,68
62254,312,68
62266,283,68
62277,344,68
62287,281,68
62298,312,68
62304,326,68
62318,276,68
62328,341,68
62338,299,68
62338,301,68
62354,341,68
62354,279,68
62380,335,68
62387,321,68
62400,290,68
62410,354,68
62421,296,68
62431,320,68
62438,340,68
62438,288,68
62462,352,68
62471,312,68
62480,309,68
62487,358,68
62502,289,68
62513,341,68
62521,330,68
62534,298,68
62544,360,68
62554,301,68
62555,329,68
62574,352,68
62585,297,68
62588,358,68
62605,324,68
62616,314,68
62622,367,68
62636,302,68
62638,345,68
62654,341,68
62667,304,68
62677,367,68
62688,311,68
62697,330,68
62704,358,68
62717,304,68
62722,364,68
62738,338,68
62750,326,68
62754,375,68
62770,315,68
62780,352,68
62788,345,68
62800,304,68
62804,369,68
62821,316,68
62831,328,68
62838,363,68
62852,296,68
62862,359,68
62872,331,68
62877,314,68
62888,371,68
62904,307,68
62905,346,68
62922,361,68
62931,336,68
62944,517,67
62954,474,67
62965,342,67
62974,318,67
62984,307,67
62995,351,67
63005,336,67
63016,310,67
63026,371,67
63036,310,67
63046,347,67
63054,361,67
63066,316,67
63077,377,67
63087,339,67
63098,341,67
63104,389,67
63119,328,67
63129,390,67
63138,379,67
63138,362,67
63154,430,67
63170,373,67
63179,403,67
63188,420,67
63188,349,67
63210,386,67
63221,324,67
63231,311,67
63238,345,67
63252,276,67
63263,332,67
63270,320,67
63283,285,67
63288,348,67
63304,290,67
63313,312,67
63321,334,67
63330,280,67
63338,346,67
63354,311,67
63366,304,67
63375,350,67
63379,291,67
63396,335,67
63404,328,67
63404,293,67
63426,357,67
63437,300,67
63446,318,67
63454,348,67
63454,285,67
63475,347,67
63488,318,67
63488,304,67
63504,357,67
63519,297,67
63529,338,67
63537,340,67
63550,298,67
63554,362,67
63571,306,67
63581,325,67
63588,359,67
63588,295,67
63605,361,67
63621,336,67
63632,319,67
63638,378,67
63653,301,67
63663,335,67
63671,344,67
63683,293,67
63694,361,67
63704,308,67
63704,320,67
63721,355,67
63731,294,67
63745,353,67
63755,327,67
63765,306,67
63775,367,67
63786,303,67
63797,347,67
63804,372,67
63817,408,67
63825,517,67
63825,336,67
63848,266,67
63855,366,67
63868,289,67
63875,348,67
63887,335,67
63899,311,67
63905,371,67
63905,309,67
63930,341,67
63938,359,67
63938,306,67
63954,378,67
63971,333,67
63981,337,67
63988,389,67
63988,327,67
64005,390,67
64022,389,67
64032,361,67
64039,434,67
64053,378,67
64054,398,67
64071,402,67
64084,317,67
64088,362,67
64104,309,67
64114,295,67
64121,342,67
64135,273,67
64146,322,67
64155,314,67
64165,278,67
64175,342,67
64175,280,67
64188,304,67
64205,328,67
64217,274,67
64221,338,67
64237,307,67
64239,299,67
64255,350,67
64269,286,67
64279,335,67
64288,329,67
64288,293,67
64304,354,67
64320,300,67
64329,314,67
64338,343,67
64338,282,67
64354,344,67
64371,314,67
64381,300,67
64387,355,67
64402,290,67
64405,331,67
64422,333,67
64432,286,67
64438,350,67
64453,301,67
64464,319,67
64471,350,67
64476,289,67
64488,357,67
64504,332,67
64505,314,67
64522,368,67
64535,294,67
64546,330,67
64555,338,67
64555,288,67
64576,358,67
64587,306,67
64597,313,67
64604,349,67
64604,284,67
64621,343,67
64638,321,67
64647,298,67
64654,359,67
64669,296,67
64679,343,67
64688,433,67
64688,481,67
64705,450,67
64720,250,67
64730,299,67
64738,348,67
64751,286,67
64755,341,67
64771,323,67
64776,298,67
64788,359,67
64788,301,67
64804,332,67
64822,351,67
64834,297,67
64843,367,67
64854,326,67
64863,331,67
64871,378,67
64884,321,67
64895,382,67
64905,375,67
64916,353,67
64921,425,67
64921,365,67
64946,377,67
64955,374,67
64955,302,67
64976,348,67
64986,303,67
64998,294,67
65005,341,67
65005,275,67
65028,322,67
65038,313,67
65038,274,67
65055,340,67
65055,280,67
65076,305,67
65088,334,67
65099,273,67
65105,336,67
65121,306,67
65131,293,67
65138,350,67
65152,284,67
65155,330,67
65171,329,67
65182,289,67
65189,355,67
65189,299,67
65206,316,67
65222,347,67
65232,285,67
65238,349,67
65254,321,67
65264,304,67
65271,359,67
65285,295,67
65295,339,67
65304,341,67
65315,295,67
65321,363,67
65327,310,67
65347,322,67
65356,358,67
65367,292,67
65376,352,67
65388,330,67
65388,307,67
65405,365,67
65405,310,67
65422,348,67
65438,354,67
65449,308,67
65455,361,67
65455,315,67
65480,322,67
65489,359,67
65500,296,67
65510,354,67
65522,334,67
65528,307,67
65537,368,67
65537,307,67
65553,342,67
65571,354,67
65581,303,67
65581,372,67
65598,344,67
65598,432,67
65615,552,67
65631,377,67
65645,288,67
65648,328,67
65665,305,67
65665,364,67
65680,305,67
65695,335,67
65706,351,67
65715,300,67
65715,367,67
65732,325,67
65746,325,67
65757,371,67
65765,306,67
65776,362,67
65782,358,67
65798,327,67
65808,399,67
65815,350,67
65815,384,67
65839,415,67
65848,363,67
65848,431,67
65870,380,67
65880,348,67
65890,376,67
65898,295,67
65898,336,67
65921,322,67
65931,285,67
65942,351,67
65948,292,67
65962,311,67
65964,340,67
65982,282,67
65987,344,67
65998,312,67
66014,301,67
66015,355,67
66032,289,67
66040,339,67
66055,336,67
66064,292,67
66065,361,67
66081,308,67
66096,324,67
66106,353,67
66114,297,67
66128,357,67
66136,329,67
66147,314,67
66157,367,67
66164,304,67
66178,347,67
66184,352,67
66198,305,67
66209,371,67
66214,320,67
66230,334,67
66239,371,67
66248,309,67
66260,365,67
66264,343,67
66281,321,67
66287,376,67
66298,312,67
66312,350,67
66315,359,67
66331,311,67
66342,379,67
66347,329,67
66362,333,67
66364,374,67
66381,314,67
66394,371,67
66404,348,67
66413,337,67
66425,394,67
66431,333,67
66436,363,67
66455,368,67
66464,310,67
66468,380,67
66481,333,67
66495,334,67
66507,376,67
66515,309,67
66527,367,67
66537,350,67
66548,322,67
66557,384,67
66564,323,67
66578,355,67
66585,366,67
66599,325,67
66599,443,66
66615,517,66
66630,455,66
66635,345,66
66648,281,66
66660,360,66
66671,338,66
66681,312,66
66691,374,66
66698,314,66
66698,340,66
66722,361,66
66731,306,66
66743,377,66
66748,338,66
66763,336,66
66765,384,66
66782,323,66
66793,375,66
66798,376,66
66814,353,66
66815,423,66
66832,371,66
66846,402,66
66855,429,66
66865,363,66
66865,403,66
66883,346,66
66896,321,66
66907,358,66
66914,289,66
66927,334,66
66938,329,66
66947,285,66
66958,350,66
66964,296,66
66978,315,66
66989,346,66
66998,282,66
66998,344,66
67015,316,66
67015,300,66
67041,355,66
67047,293,66
67061,334,66
67070,339,66
67081,291,66
67091,357,66
67098,300,66
67112,313,66
67122,347,66
67131,291,66
67135,345,66
67148,323,66
67163,301,66
67165,358,66
67181,294,66
67189,330,66
67198,343,66
67214,289,66
67224,356,66
67231,309,66
67231,312,66
67248,352,66
67265,289,66
67275,348,66
67281,325,66
67297,304,66
67307,360,66
67314,296,66
67327,331,66
67338,344,66
67347,295,66
67358,360,66
67365,323,66
67378,323,66
67386,364,66
67399,295,66
67399,341,66
67414,326,66
67430,299,66
67431,356,66
67447,297,66
67460,323,66
67465,339,66
67481,285,66
67492,348,66
67497,308,66
67512,304,66
67523,349,66
67531,285,66
67534,344,66
67548,347,66
67564,381,66
67565,518,66
67581,341,66
67595,266,66
67598,342,66
67615,282,66
67626,347,66
67632,310,66
67636,302,66
67647,354,66
67664,290,66
67676,341,66
67681,337,66
67697,299,66
67708,366,66
67715,311,66
67715,339,66
67738,365,66
67747,315,66
67759,384,66
67764,359,66
67778,360,66
67787,420,66
67798,357,66
67798,401,66
67814,386,66
67830,321,66
67841,361,66
67848,291,66
67861,297,66
67865,321,66
67882,264,66
67891,323,66
67898,291,66
67898,278,66
67923,331,66
67931,268,66
67944,311,66
67949,313,66
67964,266,66
67974,336,66
67982,284,66
67985,295,66
67998,330,66
68015,270,66
68025,331,66
68031,306,66
68046,284,66
68056,342,66
68065,277,66
68077,316,66
68087,323,66
68097,274,66
68107,342,66
68114,293,66
68128,299,66
68139,337,66
68148,277,66
68148,335,66
68164,312,66
68179,290,66
68189,347,66
68198,285,66
68210,322,66
68215,330,66
68230,282,66
68241,345,66
68247,304,66
68262,309,66
68265,351,66
68281,297,66
68292,350,66
68298,331,66
68313,301,66
68314,353,66
68332,288,66
68344,321,66
68354,338,66
68364,284,66
68365,346,66
68381,305,66
68395,301,66
68398,348,66
68415,283,66
68424,334,66
68432,323,66
68432,294,66
68448,354,66
68467,312,66
68477,374,66
68488,498,65
68498,385,65
68508,329,65
68515,282,65
68529,304,65
68539,347,65
68547,285,65
68559,334,65
68569,329,65
68580,296,65
68590,360,65
68598,303,65
68611,329,65
68615,356,65
68631,299,65
68641,365,65
68649,332,65
68661,326,65
68672,384,65
68682,328,65
68693,383,65
68698,390,65
68714,354,65
68724,424,65
68732,363,65
68732,358,65
68748,365,65
68765,287,65
68765,338,65
68782,303,65
68796,283,65
68799,337,65
68815,273,65
68825,316,65
68832,318,65
68847,274,65
68849,339,65
68865,289,65
68875,304,65
68882,334,65
68898,276,65
68908,336,65
68914,310,65
68914,293,65
68939,350,65
68947,287,65
68960,326,65
68965,335,65
68981,288,65
68987,354,65
68997,304,65
69011,313,65
69017,350,65
69032,290,65
69042,345,65
69048,323,65
69062,299,65
69072,360,65
69082,298,65
69082,334,65
69098,346,65
69113,294,65
69114,361,65
69131,317,65
69140,323,65
69155,365,65
69165,299,65
69165,353,65
69182,336,65
69191,307,65
69207,369,65
69215,312,65
69226,343,65
69236,357,65
69247,311,65
69248,374,65
69265,332,65
69279,330,65
69283,368,65
69298,298,65
69298,355,65
69314,343,65
69329,306,65
69340,367,65
69349,310,65
69360,337,65
69365,356,65
69381,303,65
69385,369,65
69398,330,65
69411,324,65
69422,369,65
69431,319,65
69442,408,64
69448,511,64
69463,431,64
69473,358,64
69483,276,64
69485,330,64
69504,351,64
69514,295,64
69524,357,64
69531,328,64
69545,315,64
69555,368,64
69564,307,64
69575,354,64
69586,354,64
69586,313,64
69607,379,64
69615,329,64
69627,349,64
69637,386,64
69648,334,64
69648,404,64
69665,382,64
69679,376,64
69682,432,64
69698,364,64
69709,386,64
69714,369,64
69730,306,64
69737,358,64
69749,302,64
69760,307,64
69765,344,64
69781,284,64
69791,340,64
69798,317,64
69798,298,64
69815,354,64
69832,290,64
69841,328,64
69847,335,64
69863,287,64
69865,350,64
69883,306,64
69883,313,64
69898,350,64
69915,289,64
69925,345,64
69931,326,64
69945,303,64
69956,360,64
69964,299,64
69976,333,64
69983,342,64
69987,293,64
70007,358,64
70015,312,64
70015,314,64
70031,355,64
70048,291,64
70058,344,64
70064,329,64
70078,303,64
70089,362,64
70098,303,64
70109,335,64
70120,350,64
70130,301,64
70135,364,64
70148,323,64
70148,322,64
70165,365,64
70181,302,64
70192,353,64
70198,342,64
70212,308,64
70215,369,64
70231,310,64
70244,334,64
70248,356,64
70264,305,64
70274,363,64
70283,329,64
70288,331,64
70298,375,64
70314,313,64
70326,363,64
70331,348,64
70345,307,64
70355,374,64
70365,316,64
70365,338,64
70383,360,64
70397,303,64
70408,364,64
70415,328,64
70415,317,64
70432,368,64
70448,304,64
70459,349,64
70465,347,64
70479,318,64
70483,461,63
70498,503,63
70510,439,63
70515,303,63
70531,281,63
70540,354,63
70547,320,63
70561,306,63
70565,361,63
70582,301,63
70592,343,63
70599,347,63
70612,302,63
70615,366,63
70631,321,63
70644,336,63
70648,371,63
70663,315,63
70665,376,63
70684,361,63
70695,346,63
70698,413,63
70714,360,63
70726,403,63
70731,412,63
70740,356,63
70756,400,63
70764,330,63
70777,323,63
70784,347,63
70798,279,63
70807,333,63
70814,310,63
70828,283,63
70839,344,63
70848,283,63
70859,318,63
70865,330,63
70865,277,63
70889,342,63
70898,296,63
70910,299,63
70921,344,63
70931,277,63
70938,335,63
70948,316,63
70948,286,63
70972,350,63
70981,287,63
70993,317,63
70998,337,63
70998,283,63
71022,347,63
71031,305,63
71043,305,63
71049,351,63
71064,286,63
71075,337,63
71084,326,63
71095,291,63
71098,355,63
71114,297,63
71114,323,63
71132,347,63
71140,287,63
71148,354,63
71165,316,63
71165,308,63
71188,357,63
71198,292,63
71198,341,63
71215,331,63
71215,300,63
71239,367,63
71248,306,63
71248,337,63
71265,364,63
71280,304,63
71289,365,63
71297,322,63
71311,305,63
71315,361,63
71331,295,63
71341,340,63
71348,337,63
71362,297,63
71373,359,63
71382,305,63
71385,322,63
71398,351,63
71398,290,63
71415,353,63
71431,323,63
71445,317,63
71455,419,63
71464,453,63
71464,418,63
71485,305,63
71496,272,63
71506,359,63
71514,303,63
71526,318,63
71536,356,63
71536,293,63
71557,354,63
71565,332,63
71565,314,63
71588,371,63
71597,305,63
71608,349,63
71615,361,63
71629,316,63
71639,387,63
71648,344,63
71660,359,63
71665,406,63
71681,350,63
71690,415,63
71697,399,63
71711,366,63
71715,401,63
71731,318,63
71742,330,63
71748,334,63
71748,274,63
71773,338,63
71782,293,63
71793,294,63
71803,336,63
71813,271,63
71824,324,63
71831,310,63
71844,277,63
71848,342,63
71864,286,63
71875,314,63
71885,333,63
71890,278,63
71898,347,63
71916,307,63
71927,303,63
71931,354,63
71947,286,63
71948,336,63
71964,328,63
71978,290,63
71985,355,63
71999,298,63
72009,320,63
72014,347,63
72029,290,63
72040,351,63
72048,318,63
72060,308,63
72070,358,63
72080,296,63
72085,344,63
72099,342,63
72112,301,63
72114,371,63
72131,316,63
72142,335,63
72148,371,63
72154,310,63
72173,372,63
72182,342,63
72185,316,63
72204,363,63
72214,299,63
72215,345,63
72231,346,63
72245,298,63
72248,366,63
72265,313,63
72265,327,63
72285,360,63
72296,301,63
72298,364,63
72315,338,63
72315,317,63
72332,389,63
72348,360,63
72358,504,63
72365,439,63
72378,282,63
72388,344,63
72398,317,63
72409,323,63
72415,366,63
72415,303,63
72432,363,63
72449,344,63
72449,322,63
72471,382,63
72481,320,63
72485,356,63
72499,368,63
72499,327,63
72522,392,63
72531,350,63
72542,360,63
72549,411,63
72549,355,63
72565,420,63
72582,411,63
72586,386,63
72598,437,63
72614,359,63
72615,363,63
72632,360,63
72644,295,63
72647,355,63
72665,310,63
72676,305,63
72686,352,63
72697,287,63
72707,338,63
72715,326,63
72728,294,63
72735,356,63
72748,298,63
72758,322,63
72764,342,63
72779,289,63
72785,352,63
72798,316,63
72798,311,63
72814,360,63
72830,294,63
72840,342,63
72848,335,63
72861,297,63
72865,364,63
72881,307,63
72891,332,63
72898,355,63
72898,297,63
72922,358,63
72931,327,63
72943,312,63
72949,364,63
72949,296,63
72965,343,63
72982,337,63
72986,297,63
73004,359,63
73014,307,63
73024,324,63
73031,350,63
73046,301,63
73056,360,63
73065,331,63
73076,312,63
73086,355,63
73097,283,63
73107,328,63
73114,331,63
73127,283,63
73138,348,63
73148,294,63
73159,306,63
73165,337,63
73179,275,63
73189,332,63
73198,309,63
73210,291,63
73215,345,63
73230,294,63
73241,364,63
73249,477,63
73261,395,63
73271,337,63
73282,245,63
73285,293,63
73298,325,63
73313,263,63
73315,319,63
73332,301,63
73341,278,63
73349,338,63
73349,275,63
73375,312,63
73382,328,63
73395,273,63
73405,340,63
73415,300,63
73415,309,63
73432,355,63
73442,296,63
73456,361,63
73464,355,63
73467,333,63
73485,402,63
73497,338,63
73508,350,63
73515,345,63
73515,269,63
73539,321,63
73548,275,63
73558,268,63
73565,314,63
73579,250,63
73590,303,63
73598,295,63
73609,260,63
73616,323,63
73631,264,63
73640,287,63
73649,313,63
73649,255,63
73666,322,63
73682,286,63
73685,278,63
73698,327,63
73713,264,63
73715,314,63
73732,310,63
73744,272,63
73748,336,63
73764,282,63
73774,300,63
73782,326,63
73794,272,63
73805,334,63
73815,303,63
73825,291,63
73833,342,63
73846,278,63
73854,325,63
73865,324,63
73876,282,63
73885,347,63
73897,294,63
73900,308,63
73915,341,63
73928,282,63
73939,342,63
73948,315,63
73959,297,63
73965,353,63
73980,290,63
73990,329,63
73998,335,63
74011,296,63
74015,358,63
74031,311,63
74042,330,63
74049,364,63
74049,303,63
74072,357,63
74081,327,63
74085,302,63
74099,363,63
74099,301,63
74119,336,63
74132,348,63
74144,298,63
74155,363,63
74165,315,63
74175,323,63
74181,361,63
74195,299,63
74206,355,63
74214,337,63
74226,324,63
74233,454,62
74233,485,62
74257,432,62
74265,293,62
74278,275,62
74285,356,62
74298,313,62
74308,313,62
74316,357,62
74316,298,62
74332,352,62
74348,340,62
74352,307,62
74364,372,62
74380,317,62
74388,345,62
74398,366,62
74398,315,62
74415,381,62
74431,351,62
74441,353,62
74448,411,62
74462,354,62
74464,409,62
74481,406,62
74493,365,62
74503,406,62
74514,326,62
74523,334,62
74531,345,62
74535,284,62
74555,344,62
74564,310,62
74575,301,62
74582,353,62
74596,288,62
74606,332,62
74616,330,62
74616,289,62
74632,352,62
74647,297,62
74649,316,62
74665,344,62
74678,287,62
74686,349,62
74698,319,62
74709,305,62
74715,359,62
74715,296,62
74739,335,62
74748,342,62
74760,301,62
74770,361,62
74780,308,62
74791,322,62
74798,356,62
74811,296,62
74815,353,62
74831,327,62
74842,306,62
74848,362,62
74863,298,62
74873,336,62
74882,344,62
74888,296,62
74899,360,62
74899,316,62
74916,321,62
74931,361,62
74945,302,62
74948,352,62
74964,336,62
74975,308,62
74982,364,62
74996,306,62
74998,339,62
75015,348,62
75015,301,62
75037,363,62
75047,321,62
75058,326,62
75065,363,62
75078,309,62
75088,364,62
75098,348,62
75099,321,62
75116,370,62
75129,305,62
75132,336,62
75148,352,62
75148,300,62
75165,364,62
75182,321,62
75189,318,62
75198,364,62
75212,304,62
75222,357,62
75232,347,62
75243,308,62
75248,375,62
75263,325,62
75266,373,62
75281,500,61
75294,438,61
75304,385,61
75314,285,61
75325,323,61
75332,361,61
75345,303,61
75349,345,61
75364,344,61
75376,305,61
75386,371,61
75396,314,61
75407,336,61
75415,366,61
75427,308,61
75434,371,61
75434,346,61
75458,334,61
75465,392,61
75479,335,61
75486,390,61
75498,398,61
75509,363,61
75515,434,61
75529,382,61
75539,382,61
75549,390,61
75549,305,61
75566,352,61
75581,316,61
75592,291,61
75599,346,61
75612,281,61
75616,324,61
75632,327,61
75643,280,61
75648,345,61
75663,297,61
75673,307,61
75681,342,61
75694,284,61
75704,341,61
75715,322,61
75725,297,61
75731,358,61
75745,296,61
75755,332,61
75765,346,61
75776,292,61
75783,357,61
75797,313,61
75798,318,61
75815,358,61
75825,298,61
75832,350,61
75848,335,61
75858,309,61
75865,366,61
75865,306,61
75887,339,61
75899,351,61
75910,299,61
75915,364,61
75930,320,61
75941,323,61
75949,364,61
75949,307,61
75966,359,61
75982,342,61
75988,315,61
75998,379,61
76013,319,61
76015,346,61
76032,356,61
76041,293,61
76048,358,61
76063,319,61
76065,309,61
76082,355,61
76095,292,61
76105,341,61
76114,330,61
76125,295,61
76136,360,61
76146,301,61
76148,324,61
76165,350,61
76176,307,61
76186,392,61
76196,448,62
76199,416,62
76215,362,62
76225,258,62
76238,349,62
76249,330,62
76249,297,62
76265,362,62
76279,310,62
76288,332,62
76298,358,62
76298,302,62
76316,365,62
76330,338,62
76341,324,62
76349,380,62
76362,318,62
76372,369,62
76382,374,62
76391,337,62
76398,413,62
76398,370,62
76416,390,62
76432,432,62
76432,364,62
76449,406,62
76464,355,62
76474,313,62
76482,357,62
76489,284,62
76505,315,62
76515,325,62
76515,275,62
76531,342,62
76546,293,62
76556,302,62
76566,341,62
76566,277,62
76581,334,62
76597,316,62
76598,291,62
76615,353,62
76628,292,62
76632,326,62
76649,341,62
76649,292,62
76665,358,62
76680,314,62
76689,317,62
76698,359,62
76710,297,62
76721,352,62
76731,336,62
76742,307,62
76749,369,62
76761,309,62
76772,341,62
76782,361,62
76792,308,62
76801,370,62
76813,330,62
76823,329,62
76833,378,62
76844,317,62
76849,367,62
76849,365,62
76875,334,62
76882,395,62
76895,339,62
76898,357,62
76915,371,62
76926,315,62
76936,380,62
76947,342,62
76949,336,62
76966,387,62
76978,320,62
76982,368,62
76998,364,62
77008,325,62
77015,396,62
77028,337,62
77038,356,62
77048,399,62
77059,365,62
77065,530,63
77080,471,63
77090,353,63
77098,349,63
77111,326,63
77121,363,63
77131,365,63
77141,324,63
77149,389,63
77161,339,63
77172,353,63
77182,387,63
77191,329,63
77198,391,63
77213,365,63
77224,348,63
77232,407,63
77240,348,63
77248,393,63
77265,405,63
77265,369,63
77282,444,63
77295,402,63
77299,414,63
77315,446,63
77325,368,63
77331,401,63
77347,358,63
77349,321,63
77366,370,63
77375,303,63
77388,338,63
77398,345,63
77399,298,63
77416,360,63
77425,311,63
77432,314,63
77449,351,63
77449,288,63
77467,343,63
77480,326,63
77490,300,63
77498,359,63
77511,301,63
77516,332,63
77531,344,63
77532,294,63
77548,359,63
77548,315,63
77565,316,63
77582,356,63
77593,291,63
77598,344,63
77614,332,63
77625,301,63
77631,363,63
77645,303,63
77655,329,63
77665,349,63
77675,290,63
77684,353,63
77696,317,63
77706,307,63
77715,356,63
77727,292,63
77737,338,63
77747,330,63
77758,295,63
77765,358,63
77778,300,63
77782,327,63
77798,352,63
77799,294,63
77815,356,63
77829,311,63
77832,296,63
77849,349,63
77849,284,63
77866,328,63
77875,325,63
77890,282,63
77901,347,63
77912,294,63
77915,309,63
77931,340,63
77943,280,63
77948,344,63
77962,315,63
77965,313,63
77981,407,63
77994,451,63
77999,444,63
78015,318,63
78015,249,63
78031,345,63
78045,292,63
78049,307,63
78065,341,63
78076,281,63
78082,341,63
78092,319,63
78106,298,63
78116,356,63
78127,296,63
78132,336,63
78148,344,63
78149,300,63
78166,368,63
78178,327,63
78188,341,63
78199,390,63
78209,338,63
78215,401,63
78229,382,63
78240,355,63
78249,395,63
78260,312,63
78266,328,63
78266,327,63
78282,267,63
78298,330,63
78312,285,63
78316,289,63
78332,333,63
78342,268,63
78349,322,63
78363,308,63
78373,277,63
78382,338,63
78394,279,63
78404,309,63
78414,324,63
78425,271,63
78432,340,63
78445,298,63
78456,297,63
78465,343,63
78476,277,63
78483,332,63
78497,318,63
78498,285,63
78515,349,63
78524,291,63
78531,315,63
78547,336,63
78558,282,63
78565,345,63
78578,308,63
78589,301,63
78598,349,63
78610,284,63
78619,334,63
78628,326,63
78640,287,63
78648,350,63
78661,294,63
78671,315,63
78681,340,63
78691,282,63
78698,343,63
78712,310,63
78715,299,63
78732,353,63
78743,288,63
78748,335,63
78763,332,63
78774,288,63
78782,359,63
78795,309,63
78798,325,63
78814,357,63
78815,293,63
78832,345,63
78845,316,63
78848,300,63
78865,355,63
78876,291,63
78881,330,63
78897,334,63
78901,289,63
78913,352,63
78928,305,63
78936,316,63
78948,348,63
78956,287,63
78969,349,63
78970,341,63
78986,398,63
78993,528,62
79010,380,62
79019,274,62
79030,325,62
79036,286,62
79050,349,62
79054,303,62
79069,314,62
79082,353,62
79086,290,62
79102,349,62
79113,330,62
79119,307,62
79133,364,62
79139,303,62
79153,340,62
79164,357,62
79170,312,62
79184,380,62
79194,342,62
79202,356,62
79215,403,62
79219,348,62
79236,405,62
79240,382,62
79252,332,62
79267,371,62
79275,297,62
79286,317,62
79298,328,62
79303,272,62
79318,336,62
79328,295,62
79336,290,62
79336,336,62
79352,272,62
79369,326,62
79380,314,62
79387,282,62
79400,343,62
79410,285,62
79419,312,62
79431,335,62
79440,280,62
79451,344,62
79462,307,62
79469,299,62
79469,346,62
79486,284,62
79502,333,62
79513,325,62
79522,289,62
79533,351,62
79544,295,62
79552,316,62
79564,342,62
79569,285,62
79585,346,62
79593,310,62
79602,300,62
79616,352,62
79626,288,62
79636,333,62
79646,331,62
79653,290,62
79667,358,62
79677,303,62
79686,321,62
79697,351,62
79708,289,62
79718,349,62
79729,320,62
79737,305,62
79748,361,62
79759,297,62
79769,338,62
79780,338,62
79787,295,62
79800,358,62
79802,309,62
79819,319,62
79829,353,62
79842,294,62
79852,354,62
79853,331,62
79869,320,62
79883,374,62
79893,310,62
79903,349,62
79903,345,62
79919,294,62
79934,363,62
79944,312,62
79953,320,62
79953,354,62
79975,293,62
79985,350,62
79994,329,62
80003,308,62
80003,365,62
80020,301,62
80036,338,62
80036,350,62
80053,315,62
80053,446,62
80070,495,62
80087,422,62
80098,307,62
80108,273,62
80119,344,62
80129,326,62
80137,299,62
80149,363,62
80160,302,62
80169,334,62
80181,348,62
80186,298,62
80194,362,62
80210,324,62
80220,325,62
80231,372,62
80242,314,62
80252,369,62
80263,362,62
80269,337,62
80283,411,62
80293,361,62
80302,395,62
80313,419,62
80319,357,62
80334,402,62
80344,340,62
80352,320,62
80365,354,62
80375,281,62
80386,328,62
80394,320,62
80403,282,62
80403,346,62
80421,287,62
80436,311,62
80436,331,62
80452,274,62
80467,340,62
80478,306,62
80486,296,62
80499,348,62
80509,281,62
80519,330,62
80529,327,62
80536,290,62
80550,352,62
80561,299,62
80570,316,62
80570,348,62
80586,286,62
80601,347,62
80603,316,62
80619,304,62
80632,356,62
80636,294,62
80653,334,62
80663,339,62
80669,295,62
80678,360,62
80694,307,62
80702,323,62
80714,353,62
80719,293,62
80734,356,62
80745,323,62
80752,308,62
80765,365,62
80776,298,62
80786,342,62
80797,350,62
80802,303,62
80816,375,62
80827,323,62
80836,334,62
80848,374,62
80852,304,62
80868,352,62
80870,335,62
80885,308,62
80899,367,62
80903,307,62
80919,342,62
80930,349,62
80936,300,62
80950,366,62
80952,320,62
80970,326,62
80981,366,62
80985,306,62
81002,370,62
81003,371,62
81019,430,62
81032,502,62
81038,328,62
81052,295,62
81052,363,62
81070,298,62
81084,367,62
81086,328,62
81102,330,62
81114,376,62
81119,312,62
81134,366,62
81136,352,62
81153,322,62
81153,387,62
81170,330,62
81186,361,62
81195,385,62
81202,337,62
81217,409,62
81228,376,62
81236,380,62
81236,432,62
81258,374,62
81268,427,62
81279,403,62
81287,345,62
81296,386,62
81303,309,62
81320,324,62
81329,344,62
81336,282,62
81351,344,62
81353,307,62
81369,297,62
81382,350,62
81386,282,62
81402,332,62
81403,322,62
81419,283,62
81432,351,62
81436,294,62
81452,320,62
81452,347,62
81469,287,62
81478,351,62
81494,318,62
81504,307,62
81514,358,62
81525,295,62
81535,339,62
81546,339,62
81552,294,62
81566,360,62
81569,310,62
81587,324,62
81597,354,62
81607,296,62
81617,353,62
81628,323,62
81637,311,62
81637,362,62
81659,300,62
81669,342,62
81679,346,62
81686,310,62
81696,373,62
81703,322,62
81719,333,62
81730,360,62
81735,295,62
81751,354,62
81761,328,62
81769,308,62
81781,364,62
81789,300,62
81802,336,62
81813,341,62
81819,295,62
81834,360,62
81836,313,62
81853,325,62
81863,362,62
81869,313,62
81878,419,63
81887,496,63
81902,390,63
81916,331,63
81920,277,63
81936,332,63
81937,342,63
81953,295,63
81953,363,63
81970,319,63
81986,326,63
81997,365,63
82003,304,63
82003,360,63
82020,344,63
82036,317,63
82036,382,63
82053,324,63
82069,360,63
82079,379,63
82086,338,63
82100,413,63
82110,378,63
82119,386,63
82131,434,63
82136,363,63
82152,395,63
82161,360,63
82169,308,63
82178,359,63
82186,296,63
82203,319,63
82203,338,63
82220,283,63
82229,348,63
82243,309,63
82252,302,63
82264,349,63
82275,285,63
82284,336,63
82295,330,63
82303,296,63
82315,358,63
82325,304,63
82336,330,63
82336,354,63
82352,296,63
82352,363,63
82377,327,63
82386,319,63
82397,369,63
82404,305,63
82418,352,63
82429,345,63
82435,306,63
82449,370,63
82459,314,63
82469,336,63
82480,364,63
82489,303,63
82501,365,63
82503,333,63
82520,323,63
82531,374,63
82541,310,63
82552,354,63
82562,353,63
82569,309,63
82582,376,63
82593,330,63
82603,344,63
82603,376,63
82620,313,63
82629,362,63
82636,336,63
82653,320,63
82653,372,63
82669,308,63
82685,347,63
82687,349,63
82703,304,63
82703,368,63
82721,318,63
82736,328,63
82747,362,63
82753,300,63
82767,371,63
82777,365,63
82786,444,62
82798,513,62
82808,343,62
82819,285,62
82828,345,62
82836,294,62
82849,359,62
82860,310,62
82869,317,62
82881,355,62
82889,294,62
82901,352,62
82902,332,62
82920,310,62
82931,370,62
82941,308,62
82951,344,62
82962,358,62
82970,315,62
82982,385,62
82986,348,62
83003,361,62
83014,408,62
83019,349,62
83019,404,62
83036,372,62
83053,323,62
83065,361,62
83070,286,62
83086,309,62
83086,321,62
83103,267,62
83117,330,62
83119,286,62
83136,287,62
83141,329,62
83152,266,62
83167,317,62
83178,303,62
83187,273,62
83198,332,62
83203,274,62
83219,302,62
83227,321,62
83235,268,62
83250,335,62
83260,295,62
83269,291,62
83280,336,62
83286,272,62
83300,318,62
83303,310,62
83319,278,62
83332,341,62
83336,282,62
83352,307,62
83353,330,62
83369,273,62
83382,336,62
83387,300,62
83403,290,62
83403,342,62
83420,277,62
83429,324,62
83445,320,62
83453,281,62
83453,343,62
83470,287,62
83486,308,62
83496,333,62
83503,275,62
83516,337,62
83527,306,62
83536,293,62
83547,349,62
83558,289,62
83568,333,62
83578,333,62
83586,287,62
83599,340,62
83609,291,62
83619,309,62
83629,336,62
83637,278,62
83650,337,62
83660,307,62
83669,293,62
83681,346,62
83686,285,62
83701,329,62
83703,328,62
83719,283,62
83732,356,62
83737,324,62
83752,435,63
83763,495,63
83769,313,63
83783,273,63
83793,308,63
83804,287,63
83815,340,63
83824,279,63
83835,322,63
83845,328,63
83853,284,63
83866,352,63
83875,305,63
83886,317,63
83896,355,63
83902,293,63
83917,353,63
83928,335,63
83936,314,63
83948,380,63
83953,329,63
83968,374,63
83970,395,63
83987,350,63
84000,414,63
84004,358,63
84019,342,63
84030,362,63
84036,283,63
84050,329,63
84053,305,63
84069,278,63
84082,336,63
84091,274,63
84102,310,63
84112,323,63
84119,271,63
84132,335,63
84143,291,63
84152,296,63
84163,338,63
84169,275,63
84184,329,63
84186,317,63
84203,287,63
84203,348,63
84220,289,63
84236,317,63
84237,335,63
84252,283,63
84252,348,63
84270,309,63
84286,307,63
84297,350,63
84303,289,63
84317,339,63
84328,326,63
84336,295,63
84348,362,63
84353,299,63
84369,327,63
84378,348,63
84387,293,63
84399,355,63
84402,317,63
84419,314,63
84429,361,63
84436,297,63
84451,348,63
84453,343,63
84470,306,63
84481,370,63
84487,309,63
84502,333,63
84503,353,63
84520,301,63
84529,366,63
84543,325,63
84553,327,63
84564,375,63
84571,309,63
84584,353,63
84594,341,63
84603,300,63
84615,365,63
84625,310,63
84635,331,63
84646,356,63
84652,294,63
84666,359,63
84676,325,63
84685,311,63
84697,364,63
84703,301,63
84718,346,63
84720,345,63
84736,314,63
84748,418,63
84753,471,63
84769,448,63
84779,342,63
84786,257,63
84800,357,63
84803,318,63
84820,305,63
84829,361,63
84836,300,63
84851,343,63
84861,349,63
84869,308,63
84882,376,63
84892,325,63
84902,339,63
84912,374,63
84920,319,63
84925,387,63
84937,364,63
84952,350,63
84965,417,63
84970,360,63
84986,408,63
84995,420,63
85003,369,63
85003,417,63
85020,342,63
85035,330,63
85038,351,63
85052,278,63
85067,335,63
85077,309,63
85086,287,63
85098,348,63
85103,283,63
85103,321,63
85129,328,63
85136,280,63
85136,344,63
85159,298,63
85169,308,63
85180,348,63
85187,285,63
85200,342,63
85203,319,63
85220,297,63
85229,358,63
85241,296,63
85250,329,63
85253,341,63
85271,290,63
85283,355,63
85292,309,63
85302,310,63
85313,353,63
85320,289,63
85334,345,63
85337,326,63
85353,299,63
85364,357,63
85370,296,63
85385,329,63
85395,344,63
85403,289,63
85416,356,63
85427,313,63
85436,312,63
85446,357,63
85453,298,63
85467,350,63
85477,335,63
85486,312,63
85498,374,63
85503,314,63
85503,342,63
85528,352,63
85536,291,63
85536,358,63
85560,319,63
85570,314,63
85578,361,63
85587,295,63
85601,346,63
85603,336,63
85620,302,63
85631,362,63
85642,307,63
85652,332,63
85661,355,63
85670,313,63
85682,404,63
85693,460,63
85703,405,63
85714,346,63
85719,269,63
85734,355,63
85744,336,63
85753,303,63
85753,366,63
85775,311,63
85785,333,63
85787,361,63
85802,305,63
85816,369,63
85827,339,63
85837,328,63
85837,383,63
85853,323,63
85868,372,63
85878,374,63
85887,340,63
85898,418,63
85903,368,63
85918,397,63
85925,434,63
85936,367,63
85950,411,63
85953,356,63
85970,320,63
85980,356,63
85986,288,63
86000,326,63
86012,325,63
86020,282,63
86025,346,63
86037,292,63
86052,305,63
86063,338,63
86070,277,63
86078,338,63
86087,311,63
86103,295,63
86114,349,63
86120,285,63
86134,327,63
86145,333,63
86153,286,63
86153,355,63
86176,304,63
86187,312,63
86195,348,63
86202,282,63
86217,344,63
86226,320,63
86236,298,63
86247,355,63
86253,293,63
86268,331,63
86278,340,63
86286,291,63
86298,356,63
86308,308,63
86320,315,63
86320,355,63
86337,289,63
86347,345,63
86360,325,63
86370,302,63
86381,362,63
86386,298,63
86401,339,63
86411,355,63
86420,304,63
86420,366,63
86437,318,63
86453,311,63
86463,356,63
86469,291,63
86484,347,63
86486,329,63
86503,300,63
86514,359,63
86519,299,63
86535,332,63
86537,346,63
86552,294,63
86566,357,63
86570,317,63
86586,325,63
86596,384,63
86603,407,62
86603,498,62
86627,373,62
86637,251,62
86647,363,62
86658,296,62
86668,330,62
86679,350,62
86686,295,62
86699,362,62
86704,323,62
86719,322,62
86729,368,62
86738,304,62
86750,356,62
86761,350,62
86770,318,62
86781,383,62
86789,333,62
86801,366,62
86804,395,62
86820,350,62
86826,423,62
86843,394,62
86853,387,62
86853,423,62
86870,335,62
86883,359,62
86887,334,62
86903,289,62
86915,346,62
86920,286,62
86935,308,62
86936,333,62
86953,275,62
86953,340,62
86970,304,62
86986,292,62
86997,345,62
87003,280,62
87017,328,62
87028,324,62
87036,288,62
87048,354,62
87053,299,62
87069,320,62
87078,351,62
87087,289,62
87099,350,62
87103,319,62
87119,306,62
87126,361,62
87136,297,62
87151,339,62
87153,339,62
87170,294,62
87182,361,62
87187,307,62
87202,325,62
87212,356,62
87220,293,62
87232,352,62
87243,322,62
87253,305,62
87264,358,62
87271,298,62
87284,339,62
87289,342,62
87303,299,62
87314,365,62
87320,310,62
87335,327,62
87346,359,62
87354,297,62
87354,363,62
87377,338,62
87386,318,62
87390,370,62
87404,297,62
87417,334,62
87428,343,62
87436,297,62
87448,358,62
87454,310,62
87469,317,62
87479,353,62
87486,292,62
87500,349,62
87510,328,62
87520,303,62
87530,362,62
87539,300,62
87550,353,62
87553,430,62
87570,471,62
87582,453,62
87587,269,62
87603,296,62
87613,350,62
87620,286,62
87627,347,62
87637,328,62
87654,307,62
87664,366,62
87670,306,62
87679,339,62
87687,353,62
87704,306,62
87716,370,62
87719,328,62
87735,334,62
87736,381,62
87752,323,62
87766,386,62
87770,377,62
87787,358,62
87798,427,62
87804,372,62
87804,398,62
87828,395,62
87836,320,62
87836,366,62
87853,311,62
87869,300,62
87879,343,62
87886,280,62
87886,331,62
87910,319,62
87920,286,62
87931,350,62
87936,289,62
87951,315,62
87953,335,62
87970,281,62
87982,346,62
87987,306,62
88002,302,62
88013,348,62
88020,281,62
88034,333,62
88044,326,62
88053,292,62
88064,353,62
88069,296,62
88085,320,62
88095,345,62
88104,290,62
88104,350,62
88120,314,62
88135,308,62
88147,359,62
88154,296,62
88154,344,62
88171,337,62
88187,298,62
88187,362,62
88204,307,62
88218,330,62
88228,353,62
88236,295,62
88249,358,62
88260,324,62
88269,315,62
88279,365,62
88286,301,62
88286,350,62
88310,344,62
88320,302,62
88328,368,62
88336,313,62
88351,331,62
88354,362,62
88370,302,62
88382,361,62
88387,339,62
88403,329,62
88414,378,62
88420,318,62
88434,353,62
88444,348,62
88453,303,62
88465,369,62
88474,317,62
88485,328,62
88495,358,62
88505,295,62
88505,356,62
88520,327,62
88536,311,62
88547,367,62
88554,303,62
88568,346,62
88577,354,62
88586,322,62
88598,474,62
88605,483,62
88605,398,62
88630,297,62
88636,286,62
88636,348,62
88654,325,62
88670,308,62
88681,363,62
88686,300,62
88700,336,62
88711,344,62
88720,301,62
88726,368,62
88742,322,62
88752,331,62
88762,370,62
88769,312,62
88783,372,62
88787,355,62
88803,339,62
88813,406,62
88820,352,62
88834,393,62
88839,407,62
88854,353,62
88865,398,62
88869,333,62
88885,319,62
88896,349,62
88905,280,62
88905,333,62
88927,316,62
88935,286,62
88935,345,62
88950,286,62
88966,315,62
88978,331,62
88988,281,62
88996,346,62
89006,302,62
89014,301,62
89029,343,62
89030,280,62
89047,334,62
89047,320,62
89070,289,62
89080,350,62
89089,292,62
89097,322,62
89106,340,62
89122,286,62
89129,350,62
89142,312,62
89152,307,62
89162,351,62
89173,287,62
89179,341,62
89194,329,62
89196,295,62
89213,356,62
89224,297,62
89230,320,62
89244,342,62
89246,289,62
89264,353,62
89276,316,62
89286,309,62
89296,358,62
89306,293,62
89313,340,62
89327,335,62
89334,301,62
89346,361,62
89346,304,62
89363,327,62
89363,351,62
89389,294,62
89396,358,62
89406,323,62
89412,315,62
89430,365,62
89440,301,62
89446,349,62
89446,342,62
89463,311,62
89480,374,62
89489,319,62
89502,342,62
89512,364,62
89513,296,62
89530,355,62
89539,325,62
89553,309,62
89563,362,62
89563,299,62
89579,343,62
89594,341,62
89604,299,62
89612,363,62
89625,310,62
89635,327,62
89646,356,62
89646,307,62
89665,393,62
89676,473,62
89686,448,62
89696,363,62
89707,245,62
89713,336,62
89728,330,62
89738,290,62
89745,355,62
89758,305,62
89763,318,62
89763,354,62
89789,295,62
89795,354,62
89809,329,62
89813,313,62
89829,371,62
89840,310,62
89846,355,62
89862,364,62
89871,323,62
89880,397,62
89887,357,62
89902,374,62
89912,419,62
89913,360,62
89929,408,62
89943,364,62
89946,320,62
89962,362,62
89974,291,62
89979,320,62
89986,327,62
89997,276,62
90013,341,62
90024,295,62
90029,302,62
90045,339,62
90046,278,62
90062,335,62
90077,315,62
90080,288,62
90097,348,62
90107,286,62
90117,320,62
90127,333,62
90139,284,62
90146,345,62
90159,303,62
90163,305,62
90179,347,62
90190,284,62
90196,339,62
90209,322,62
90220,294,62
90229,354,62
90241,293,62
90246,326,62
90262,342,62
90263,289,62
90279,352,62
90289,311,62
90296,311,62
90312,358,62
90314,293,62
90329,345,62
90342,332,62
90354,301,62
90364,361,62
90375,303,62
90379,331,62
90395,347,62
90405,292,62
90412,359,62
90425,319,62
90432,318,62
90446,365,62
90457,298,62
90463,354,62
90477,348,62
90479,313,62
90496,373,62
90507,310,62
90518,326,62
90528,351,62
90538,294,62
90545,357,62
90559,318,62
90569,313,62
90579,361,62
90584,297,62
90596,345,62
90611,338,62
90615,299,62
90629,366,62
90641,309,62
90651,339,62
90662,391,62
90672,430,62
90680,484,62
90693,339,62
90703,269,62
90713,364,62
90723,291,62
90731,341,62
90731,341,62
90747,299,62
90771,364,62
90774,313,62
90779,330,62
90795,362,62
90796,302,62
90813,366,62
90813,337,62
90830,322,62
90847,383,62
90856,326,62
90863,374,62
90863,385,62
90888,350,62
90896,423,62
90908,377,62
90913,392,62
90928,414,62
90938,331,62
90946,367,62
90959,322,62
90963,291,62
90979,346,62
90990,278,62
90995,317,62
91010,321,62
91013,274,62
91029,336,62
91042,289,62
91052,301,62
91062,334,62
91063,273,62
91079,335,62
91093,311,62
91103,288,62
91113,348,62
91123,285,62
91130,320,62
91136,332,62
91146,288,62
91162,349,62
91175,305,62
91179,309,62
91195,347,62
91205,285,62
91213,342,62
91226,323,62
91236,296,62
91246,358,62
91257,296,62
91262,330,62
91277,343,62
91288,294,62
91296,358,62
91309,312,62
91312,317,62
91328,357,62
91339,304,62
91346,358,62
91360,342,62
91369,313,62
91379,366,62
91390,299,62
91397,328,62
91411,344,62
91413,291,62
91429,355,62
91439,314,62
91452,313,62
91462,355,62
91473,291,62
91480,345,62
91493,331,62
91496,301,62
91514,365,62
91524,316,62
91529,364,62
91535,465,62
91555,410,62
91562,361,62
91576,275,62
91585,320,62
91596,355,62
91605,293,62
91613,347,62
91613,337,62
91637,306,62
91646,368,62
91657,314,62
91663,334,62
91678,361,62
91687,305,62
91696,369,62
91709,337,62
91713,335,62
91729,391,62
91739,337,62
91746,391,62
91760,396,62
91770,367,62
91780,434,62
91786,381,62
91796,390,62
91809,390,62
91813,306,62
91830,352,62
91839,311,62
91852,291,62
91863,344,62
91863,277,62
91880,324,62
91889,321,62
91896,278,62
91913,344,62
91924,289,62
