Timestamp,ECGValue,BPM
1637362,342,65
1637369,351,65
1637383,325,65
1637393,362,65
1637402,340,65
1637414,348,65
1637419,377,65
1637435,348,65
1637445,386,65
1637452,386,65
1637466,379,65
1637476,413,65
1637485,381,65
1637497,382,65
1637503,364,65
1637517,319,65
1637519,339,65
1637537,308,65
1637545,304,65
1637553,327,65
1637569,294,65
1637578,318,65
1637586,314,65
1637586,298,65
1637603,327,65
1637619,299,65
1637630,312,65
1637636,323,65
1637650,293,65
1637652,327,65
1637669,307,65
1637681,306,65
1637691,331,65
1637701,300,65
1637711,326,65
1637719,322,65
1637732,304,65
1637743,337,65
1637752,306,65
1637763,322,65
1637770,333,65
1637784,303,65
1637791,336,65
1637803,320,65
1637803,316,65
1637825,342,65
1637834,307,65
1637846,334,65
1637852,329,65
1637866,312,65
1637869,344,65
1637885,314,65
1637896,324,65
1637903,338,65
1637903,308,65
1637928,341,65
1637936,325,65
1637948,317,65
1637958,346,65
1637969,313,65
1637976,338,65
1637985,335,65
1637999,317,65
1638003,357,65
1638019,328,65
1638029,338,65
1638037,350,65
1638037,310,65
1638061,340,65
1638069,323,65
1638081,318,65
1638086,343,65
1638102,311,65
1638112,334,65
1638120,332,65
1638132,312,65
1638143,349,65
1638152,321,65
1638164,331,65
1638169,348,65
1638185,321,65
1638186,371,65
1638202,455,65
1638215,496,65
1638226,422,65
1638236,251,65
1638246,336,65
1638252,333,65
1638266,310,65
1638275,345,65
1638286,320,65
1638297,330,65
1638303,347,65
1638310,316,65
1638328,348,65
1638336,334,65
1638348,325,65
1638359,358,65
1638369,328,65
1638375,351,65
1638386,358,65
1638400,342,65
1638410,384,65
1638420,368,65
1638428,384,65
1638441,410,65
1638451,378,65
1638461,400,65
1638468,366,65
1638481,336,65
1638492,348,65
1638502,304,65
1638502,317,65
1638519,322,65
1638529,296,65
1638536,329,65
1638553,305,65
1638564,312,65
1638574,329,65
1638585,296,65
1638595,325,65
1638603,316,65
1638603,304,65
1638619,335,65
1638636,303,65
1638647,320,65
1638652,328,65
1638652,301,65
1638676,336,65
1638685,313,65
1638698,317,65
1638707,338,65
1638718,306,65
1638728,332,65
1638736,323,65
1638739,309,65
1638753,343,65
1638769,312,65
1638779,327,65
1638785,333,65
1638800,305,65
1638811,338,65
1638819,315,65
1638819,317,65
1638837,338,65
1638852,307,65
1638853,337,65
1638869,330,65
1638882,314,65
1638886,345,65
1638902,314,65
1638913,329,65
1638919,340,65
1638934,312,65
1638944,345,65
1638953,324,65
1638965,320,65
1638975,343,65
1638985,312,65
1638995,339,65
1639003,329,65
1639016,321,65
1639026,354,65
1639036,325,65
1639046,341,65
1639057,343,65
1639066,306,65
1639077,340,65
1639086,321,65
1639086,315,65
1639102,338,65
1639118,306,65
1639128,332,65
1639135,328,65
1639148,309,65
1639159,342,65
1639169,313,65
1639180,326,65
1639186,337,65
1639191,320,65
1639202,387,65
1639219,487,64
1639231,476,64
1639236,352,64
1639236,262,64
1639253,339,64
1639269,327,64
1639283,306,64
1639286,341,64
1639302,312,64
1639313,324,64
1639319,338,64
1639333,310,64
1639344,343,64
1639353,328,64
1639364,324,64
1639375,355,64
1639385,322,64
1639395,351,64
1639402,357,64
1639416,344,64
1639426,385,64
1639437,367,64
1639447,386,64
1639457,408,64
1639467,375,64
1639469,395,64
1639486,357,64
1639495,327,64
1639503,340,64
1639519,299,64
1639529,313,64
1639538,314,64
1639550,292,64
1639552,323,64
1639570,302,64
1639577,309,64
1639586,325,64
1639601,295,64
1639603,325,64
1639619,309,64
1639632,299,64
1639642,329,64
1639652,298,64
1639653,319,64
1639670,322,64
1639679,298,64
1639686,332,64
1639702,308,64
1639713,317,64
1639719,334,64
1639735,304,64
1639744,334,64
1639753,319,64
1639764,309,64
1639775,339,64
1639786,307,64
1639796,328,64
1639803,332,64
1639803,305,64
1639820,341,64
1639835,316,64
1639847,320,64
1639857,339,64
1639868,308,64
1639878,339,64
1639886,328,64
1639899,317,64
1639903,346,64
1639919,312,64
1639929,331,64
1639936,339,64
1639936,311,64
1639961,346,64
1639969,320,64
1639980,325,64
1639986,347,64
1639986,312,64
1640002,342,64
1640020,331,64
1640032,321,64
1640042,349,64
1640052,326,64
1640054,348,64
1640069,352,64
1640079,329,64
1640094,353,64
1640102,322,64
1640114,323,64
1640120,346,64
1640128,314,64
1640145,338,64
1640153,331,64
1640165,318,64
1640176,349,64
1640186,317,64
1640186,336,64
1640202,344,64
1640217,317,64
1640220,349,64
1640237,341,64
1640237,378,64
1640253,519,63
1640268,473,63
1640278,344,63
1640287,287,63
1640287,324,63
1640302,343,63
1640319,315,63
1640328,331,63
1640336,339,63
1640350,313,63
1640360,346,63
1640370,328,63
1640381,328,63
1640391,355,63
1640401,324,63
1640412,353,63
1640419,349,63
1640432,337,63
1640443,374,63
1640452,353,63
1640464,376,63
1640470,396,63
1640484,374,63
1640493,415,63
1640503,399,63
1640503,382,63
1640520,380,63
1640529,324,63
1640546,334,63
1640553,321,63
1640566,297,63
1640576,327,63
1640586,299,63
1640597,310,63
1640602,322,63
1640617,291,63
1640627,324,63
1640635,305,63
1640648,302,63
1640658,327,63
1640667,296,63
1640679,318,63
1640686,316,63
1640699,296,63
1640709,329,63
1640719,303,63
1640729,312,63
1640736,329,63
1640751,296,63
1640761,332,63
1640769,316,63
1640781,307,63
1640792,335,63
1640802,302,63
1640811,325,63
1640820,321,63
1640830,301,63
1640842,338,63
1640852,310,63
1640864,315,63
1640874,332,63
1640884,306,63
1640886,333,63
1640902,319,63
1640914,314,63
1640919,342,63
1640935,312,63
1640946,332,63
1640952,332,63
1640952,309,63
1640969,344,63
1640986,314,63
1640996,321,63
1641003,342,63
1641017,314,63
1641026,336,63
1641035,329,63
1641048,325,63
1641059,355,63
1641068,329,63
1641079,337,63
1641085,332,63
1641099,313,63
1641103,345,63
1641120,317,63
1641129,322,63
1641137,342,63
1641137,307,63
1641161,339,63
1641170,330,63
1641181,316,63
1641192,347,63
1641202,315,63
1641212,332,63
1641219,352,63
1641234,363,63
1641240,508,61
1641252,444,61
1641264,308,61
1641270,306,61
1641278,310,61
1641295,332,61
1641302,331,61
1641315,318,61
1641320,350,61
1641327,318,61
1641336,337,61
1641353,344,61
1641367,320,61
1641377,356,61
1641385,333,61
1641397,337,61
1641402,362,61
1641418,335,61
1641429,373,61
1641436,371,61
1641449,361,61
1641452,403,61
1641469,378,61
1641470,398,61
1641485,411,61
1641499,366,61
1641502,377,61
1641519,331,61
1641531,316,61
1641541,333,61
1641551,294,61
1641562,320,61
1641570,311,61
1641582,296,61
1641592,328,61
1641602,298,61
1641613,309,61
1641619,319,61
1641633,290,61
1641636,326,61
1641653,305,61
1641665,303,61
1641670,328,61
1641685,299,61
1641694,327,61
1641703,320,61
1641715,301,61
1641726,336,61
1641735,304,61
1641747,317,61
1641752,330,61
1641767,301,61
1641777,333,61
1641786,316,61
1641788,311,61
1641802,335,61
1641818,305,61
1641828,329,61
1641836,326,61
1641849,308,61
1641853,342,61
1641869,313,61
1641880,324,61
1641886,336,61
1641901,310,61
1641911,339,61
1641919,331,61
1641930,327,61
1641936,352,61
1641952,317,61
1641962,333,61
1641970,328,61
1641982,313,61
1641992,344,61
1642002,315,61
1642002,321,61
1642019,336,61
1642029,308,61
1642036,339,61
1642053,323,61
1642053,316,61
1642075,344,61
1642085,312,61
1642096,341,61
1642102,357,61
1642102,394,61
1642127,500,61
1642135,369,61
1642146,271,61
1642152,338,61
1642167,316,61
1642178,341,61
1642185,329,61
1642198,320,61
1642203,352,61
1642219,321,61
1642228,346,61
1642235,348,61
1642249,326,61
1642252,365,61
1642268,342,61
1642280,351,61
1642286,372,61
1642286,345,61
1642304,384,61
1642320,382,61
1642332,377,61
1642336,418,61
1642352,395,61
1642353,419,61
1642371,410,61
1642382,363,61
1642393,373,61
1642402,328,61
1642414,321,61
1642418,332,61
1642434,297,61
1642444,330,61
1642453,318,61
1642453,302,61
1642475,334,61
1642485,301,61
1642495,318,61
1642503,322,61
1642516,300,61
1642527,335,61
1642536,312,61
1642536,317,61
1642553,336,61
1642567,305,61
1642578,336,61
1642586,325,61
1642586,312,61
1642609,340,61
1642618,312,61
1642629,328,61
1642637,333,61
1642637,307,61
1642652,341,61
1642670,316,61
1642679,320,61
1642687,344,61
1642701,311,61
1642711,341,61
1642719,332,61
1642732,318,61
1642736,349,61
1642753,322,61
1642763,343,61
1642771,346,61
1642771,311,61
1642785,339,61
1642802,321,61
1642813,321,61
1642824,342,61
1642835,308,61
1642845,333,61
1642852,327,61
1642866,310,61
1642875,343,61
1642885,312,61
1642896,328,61
1642903,338,61
1642916,316,61
1642927,361,61
1642936,410,62
1642948,488,62
1642952,395,62
1642967,255,62
1642978,334,62
1642988,330,62
1642999,310,62
1643003,344,62
1643019,314,62
1643020,330,62
1643036,344,62
1643050,316,62
1643060,351,62
1643070,333,62
1643076,333,62
1643086,357,62
1643101,327,62
1643111,359,62
1643119,360,62
1643127,348,62
1643135,392,62
1643152,374,62
1643163,392,62
1643172,410,62
1643184,383,62
1643185,406,62
1643202,362,62
1643214,333,62
1643225,343,62
1643236,297,62
1643245,316,62
1643252,310,62
1643252,291,62
1643272,323,62
1643285,296,62
1643296,306,62
1643302,317,62
1643318,287,62
1643327,319,62
1643336,306,62
1643347,300,62
1643353,329,62
1643368,298,62
1643379,322,62
1643386,321,62
1643400,303,62
1643403,337,62
1643419,307,62
1643430,313,62
1643437,330,62
1643450,301,62
1643461,333,62
1643469,318,62
1643475,309,62
1643485,340,62
1643502,305,62
1643503,328,62
1643519,325,62
1643527,305,62
1643535,340,62
1643553,315,62
1643563,323,62
1643572,339,62
1643577,317,62
1643586,351,62
1643602,339,62
1643615,326,62
1643620,346,62
1643636,307,62
1643646,331,62
1643652,333,62
1643666,309,62
1643677,343,62
1643687,317,62
1643687,324,62
1643702,339,62
1643717,308,62
1643727,340,62
1643736,329,62
1643748,319,62
1643759,348,62
1643768,333,62
1643778,412,63
1643786,520,63
1643790,426,63
1643802,303,63
1643819,296,63
1643828,321,63
1643835,337,63
1643851,307,63
1643861,335,63
1643869,327,63
1643881,317,63
1643886,346,63
1643902,315,63
1643913,334,63
1643919,342,63
1643928,321,63
1643936,355,63
1643952,334,63
1643964,343,63
1643972,367,63
1643978,343,63
1643986,385,63
1644003,383,63
1644015,378,63
1644019,413,63
1644035,375,63
1644046,373,63
1644052,357,63
1644067,311,63
1644072,334,63
1644085,303,63
1644097,303,63
1644102,324,63
1644117,292,63
1644127,320,63
1644137,310,63
1644148,295,63
1644158,327,63
1644169,297,63
1644180,312,63
1644186,320,63
1644200,289,63
1644203,322,63
1644220,304,63
1644220,306,63
1644241,332,63
1644251,297,63
1644262,325,63
1644270,320,63
1644278,305,63
1644286,337,63
1644302,305,63
1644312,318,63
1644319,328,63
1644333,302,63
1644344,333,63
1644352,315,63
1644364,315,63
1644372,336,63
1644375,303,63
1644395,332,63
1644405,328,63
1644416,311,63
1644419,343,63
1644436,315,63
1644446,326,63
1644456,338,63
1644467,309,63
1644477,342,63
1644487,330,63
1644498,330,63
1644508,355,63
1644518,321,63
1644520,335,63
1644536,332,63
1644546,316,63
1644552,345,63
1644570,316,63
1644579,326,63
1644585,338,63
1644601,309,63
1644603,341,63
1644619,322,63
1644631,319,63
1644641,347,63
1644652,314,63
1644653,336,63
1644669,353,63
1644683,394,63
1644686,538,64
1644702,460,64
1644713,292,64
1644719,314,64
1644734,315,64
1644743,337,64
1644752,320,64
1644764,314,64
1644775,340,64
1644785,311,64
1644796,335,64
1644802,339,64
1644816,317,64
1644821,351,64
1644835,327,64
1644846,336,64
1644852,357,64
1644867,329,64
1644877,368,64
1644885,361,64
1644898,362,64
1644902,400,64
1644918,378,64
1644929,406,64
1644936,402,64
1644949,360,64
1644953,370,64
1644969,325,64
1644979,318,64
1644990,329,64
1645001,294,64
1645011,323,64
1645019,310,64
1645019,302,64
1645036,330,64
1645052,298,64
1645062,320,64
1645069,322,64
1645082,299,64
1645093,330,64
1645102,304,64
1645113,309,64
1645120,328,64
1645120,296,64
1645144,326,64
1645152,315,64
1645165,303,64
1645175,333,64
1645186,304,64
1645196,324,64
1645202,329,64
1645215,304,64
1645227,338,64
1645236,316,64
1645238,317,64
1645253,337,64
1645268,306,64
1645274,332,64
1645286,325,64
1645298,313,64
1645309,345,64
1645319,316,64
1645330,332,64
1645335,337,64
1645350,312,64
1645353,344,64
1645368,321,64
1645381,323,64
1645386,343,64
1645386,312,64
1645411,338,64
1645419,330,64
1645429,316,64
1645437,347,64
1645437,317,64
1645453,335,64
1645468,342,64
1645484,320,64
1645493,358,64
1645502,336,64
1645502,339,64
1645519,355,64
1645535,313,64
1645545,340,64
1645553,335,64
1645553,319,64
1645575,348,64
1645586,316,64
1645587,331,64
1645602,340,64
1645617,312,64
1645626,345,64
1645635,325,64
1645635,324,64
1645653,349,64
1645653,317,64
1645678,358,64
1645686,439,64
1645686,525,64
1645709,480,64
1645719,250,64
1645729,321,64
1645736,340,64
1645736,308,64
1645752,341,64
1645770,320,64
1645781,318,64
1645785,342,64
1645802,310,64
1645812,336,64
1645819,335,64
1645832,320,64
1645840,354,64
1645852,328,64
1645863,342,64
1645869,359,64
1645878,339,64
1645886,378,64
1645904,369,64
1645915,377,64
1645919,408,64
1645935,381,64
1645936,400,64
1645952,379,64
1645965,336,64
1645975,350,64
1645986,309,64
1645997,311,64
1646002,318,64
1646017,289,64
1646027,321,64
1646036,306,64
1646039,303,64
1646052,326,64
1646069,293,64
1646078,317,64
1646084,317,64
1646084,295,64
1646100,328,64
1646116,302,64
1646130,310,64
1646140,325,64
1646148,294,64
1646160,326,64
1646164,310,64
1646180,302,64
1646191,332,64
1646196,302,64
1646212,325,64
1646222,323,64
1646232,302,64
1646243,337,64
1646253,311,64
1646263,319,64
1646274,336,64
1646281,305,64
1646281,337,64
1646304,322,64
1646314,312,64
1646325,341,64
1646330,310,64
1646338,328,64
1646356,330,64
1646363,310,64
1646375,342,64
1646381,316,64
1646397,320,64
1646408,340,64
1646414,309,64
1646428,341,64
1646437,329,64
1646447,319,64
1646457,350,64
1646464,317,64
1646479,335,64
1646486,337,64
1646497,318,64
1646510,349,64
1646516,321,64
1646530,338,64
1646541,356,64
1646548,324,64
1646548,349,64
1646563,332,64
1646581,318,64
1646592,348,64
1646602,316,64
1646612,332,64
1646623,336,64
1646630,312,64
1646643,341,64
1646654,318,64
1646664,322,64
1646674,343,64
1646680,311,64
1646694,342,64
1646705,334,64
1646713,333,64
1646725,415,63
1646731,500,63
1646731,458,63
1646748,305,63
1646764,286,63
1646777,346,63
1646780,317,63
1646797,320,63
1646807,341,63
1646814,311,63
1646828,340,63
1646837,331,63
1646846,318,63
1646859,354,63
1646864,323,63
1646879,339,63
1646884,351,63
1646896,325,63
1646896,363,63
1646914,352,63
1646930,357,63
1646941,387,63
1646947,364,63
1646962,399,63
1646972,400,63
1646980,378,63
1646992,394,63
1646997,343,63
1647012,335,63
1647023,329,63
1647030,295,63
1647044,324,63
1647054,303,63
1647063,301,63
1647074,325,63
1647082,291,63
1647095,316,63
1647105,316,63
1647114,296,63
1647114,326,63
1647131,299,63
1647146,311,63
1647157,323,63
1647163,299,63
1647177,328,63
1647187,314,63
1647197,308,63
1647197,334,63
1647213,299,63
1647228,327,63
1647239,326,63
1647247,306,63
1647247,338,63
1647265,309,63
1647280,320,63
1647288,334,63
1647298,306,63
1647298,335,63
1647315,317,63
1647331,313,63
1647341,338,63
1647350,304,63
1647361,331,63
1647372,331,63
1647380,311,63
1647392,341,63
1647403,317,63
1647413,323,63
1647423,338,63
1647430,313,63
1647444,341,63
1647447,327,63
1647464,321,63
1647464,347,63
1647480,321,63
1647495,345,63
1647505,344,63
1647514,315,63
1647514,338,63
1647532,313,63
1647547,323,63
1647556,337,63
1647563,306,63
1647577,336,63
1647587,321,63
1647598,312,63
1647609,339,63
1647613,307,63
1647628,329,63
1647639,334,63
1647647,313,63
1647647,355,63
1647665,342,63
1647676,411,63
1647681,494,63
1647697,358,63
1647711,285,63
1647714,328,63
1647731,316,63
1647742,343,63
1647747,315,63
1647763,336,63
1647772,339,63
1647781,321,63
1647793,354,63
1647803,330,63
1647813,334,63
1647823,356,63
1647833,330,63
1647845,360,63
1647847,354,63
1647863,349,63
1647875,384,63
1647881,361,63
1647889,393,63
1647906,404,63
1647914,385,63
1647914,421,63
1647931,394,63
1647947,373,63
1647957,363,63
1647963,314,63
1647978,329,63
1647980,315,63
1647997,299,63
1647997,328,63
1648019,297,63
1648029,311,63
1648038,320,63
1648048,290,63
1648060,325,63
1648063,301,63
1648080,301,63
1648090,324,63
1648096,294,63
1648111,326,63
1648122,317,63
1648130,304,63
1648142,338,63
1648147,310,63
1648163,322,63
1648165,334,63
1648180,308,63
1648193,340,63
1648204,322,63
1648214,317,63
1648224,339,63
1648232,308,63
1648245,335,63
1648255,328,63
1648264,314,63
1648276,345,63
1648285,316,63
1648296,329,63
1648306,338,63
1648314,312,63
1648326,343,63
1648337,326,63
1648347,322,63
1648358,347,63
1648364,316,63
1648378,342,63
1648381,344,63
1648397,328,63
1648409,361,63
1648414,329,63
1648429,331,63
1648438,340,63
1648447,313,63
1648460,344,63
1648471,325,63
1648480,321,63
1648491,346,63
1648496,315,63
1648512,338,63
1648513,336,63
1648530,317,63
1648543,350,63
1648553,322,63
1648563,335,63
1648564,362,63
1648581,389,63
1648594,519,64
1648604,416,64
1648613,281,64
1648624,330,64
1648634,312,64
1648645,332,64
1648655,332,64
1648663,314,64
1648675,349,64
1648686,322,64
1648696,334,64
1648707,348,64
1648714,318,64
1648714,352,64
1648731,339,64
1648746,338,64
1648758,365,64
1648763,339,64
1648778,365,64
1648789,374,64
1648798,362,64
1648810,404,64
1648813,382,64
1648829,396,64
1648840,408,64
1648848,356,64
1648861,361,64
1648864,328,64
1648881,307,64
1648892,327,64
1648897,291,64
1648911,312,64
1648913,316,64
1648930,292,64
1648943,324,64
1648953,300,64
1648964,307,64
1648974,323,64
1648983,290,64
1648994,323,64
1649004,311,64
1649013,302,64
1649025,333,64
1649030,300,64
1649046,320,64
1649055,326,64
1649064,303,64
1649076,336,64
1649086,308,64
1649096,314,64
1649106,332,64
1649114,302,64
1649127,333,64
1649135,321,64
1649147,307,64
1649159,338,64
1649164,304,64
1649179,323,64
1649182,328,64
1649197,303,64
1649209,338,64
1649214,313,64
1649230,317,64
1649240,338,64
1649247,307,64
1649261,337,64
1649264,326,64
1649281,311,64
1649292,345,64
1649297,313,64
1649312,330,64
1649314,337,64
1649330,309,64
1649344,351,64
1649347,329,64
1649364,331,64
1649364,350,64
1649380,311,64
1649394,334,64
1649405,330,64
1649414,312,64
1649414,343,64
1649435,315,64
1649445,328,64
1649456,334,64
1649464,307,64
1649477,339,64
1649481,319,64
1649496,319,64
1649496,343,64
1649514,309,64
1649528,353,64
1649535,394,64
1649548,488,64
1649559,481,64
1649564,293,64
1649579,293,64
1649589,338,64
1649598,304,64
1649609,338,64
1649614,317,64
1649631,319,64
1649640,345,64
1649647,313,64
1649661,341,64
1649671,335,64
1649680,318,64
1649692,352,64
1649697,328,64
1649713,342,64
1649714,360,64
1649730,337,64
1649744,374,64
1649747,364,64
1649764,369,64
1649774,405,64
1649783,378,64
1649795,402,64
1649798,384,64
1649814,341,64
1649825,353,64
1649831,312,64
1649846,312,64
1649848,322,64
1649864,293,64
1649877,324,64
1649886,306,64
1649897,303,64
1649908,332,64
1649914,299,64
1649928,320,64
1649939,319,64
1649947,300,64
1649947,330,64
1649963,303,64
1649979,315,64
1649989,330,64
1649996,301,64
1650010,331,64
1650014,316,64
1650031,311,64
1650041,336,64
1650047,303,64
1650047,325,64
1650073,328,64
1650081,307,64
1650092,340,64
1650098,313,64
1650098,321,64
1650123,337,64
1650131,307,64
1650139,339,64
1650147,323,64
1650164,316,64
1650164,342,64
1650180,311,64
1650195,334,64
1650196,336,64
1650213,313,64
1650226,347,64
1650236,321,64
1650246,328,64
1650257,344,64
1650263,314,64
1650277,345,64
1650283,333,64
1650297,320,64
1650309,348,64
1650314,318,64
1650314,340,64
1650339,339,64
1650347,325,64
1650359,363,64
1650370,336,64
1650380,342,64
1650390,351,64
1650397,314,64
1650411,344,64
1650421,331,64
1650430,319,64
1650442,349,64
1650447,317,64
1650462,334,64
1650472,338,64
1650481,314,64
1650493,347,64
1650503,324,64
1650514,329,64
1650524,347,64
1650530,332,64
1650544,400,64
1650554,507,64
1650564,480,64
1650575,346,64
1650581,273,64
1650581,337,64
1650606,336,64
1650613,311,64
1650617,345,64
1650637,323,64
1650647,327,64
1650657,346,64
1650663,313,64
1650677,341,64
1650687,336,64
1650697,321,64
1650708,354,64
1650713,328,64
1650729,349,64
1650739,362,64
1650747,343,64
1650760,383,64
1650770,374,64
1650780,381,64
1650791,409,64
1650797,379,64
1650811,392,64
1650814,362,64
1650830,323,64
1650842,338,64
1650848,296,64
1650862,305,64
1650873,316,64
1650880,286,64
1650893,318,64
1650897,296,64
1650913,297,64
1650913,318,64
1650930,284,64
1650939,311,64
1650947,307,64
1650964,289,64
1650964,320,64
1650986,289,64
1650996,302,64
1651006,314,64
1651014,285,64
1651027,318,64
1651037,301,64
1651047,298,64
1651057,324,64
1651067,291,64
1651078,316,64
1651088,310,64
1651097,292,64
1651108,326,64
1651113,295,64
1651129,306,64
1651139,318,64
1651147,289,64
1651160,321,64
1651170,304,64
1651180,297,64
1651191,323,64
1651201,294,64
1651211,317,64
1651222,316,64
1651230,296,64
1651242,331,64
1651247,305,64
1651263,313,64
1651273,327,64
1651281,294,64
1651293,326,64
1651304,311,64
1651313,305,64
1651324,330,64
1651335,300,64
1651345,322,64
1651355,321,64
1651364,306,64
1651364,336,64
1651381,316,64
1651397,325,64
1651398,343,64
1651414,311,64
1651414,333,64
1651437,313,64
1651448,306,64
1651448,337,64
1651465,305,64
1651478,326,64
1651489,329,64
1651498,305,64
1651510,336,64
1651520,308,64
1651530,313,64
1651536,334,64
1651548,305,64
1651560,333,64
1651571,335,64
1651580,359,64
1651590,510,63
1651601,473,63
1651612,332,63
1651623,280,63
1651630,311,63
1651643,333,63
1651653,310,63
1651664,317,63
1651665,335,63
1651682,305,63
1651691,337,63
1651697,328,63
1651713,317,63
1651725,348,63
1651731,320,63
1651745,339,63
1651756,349,63
1651763,331,63
1651776,367,63
1651786,352,63
1651797,365,63
1651807,395,63
1651814,370,63
1651828,403,63
1651838,397,63
1651846,376,63
1651858,382,63
1651868,327,63
1651879,327,63
1651882,325,63
1651898,294,63
1651910,326,63
1651914,305,63
1651930,306,63
1651940,327,63
1651947,294,63
1651961,320,63
1651964,313,63
1651980,299,63
1651992,331,63
1651998,302,63
1651998,317,63
1652013,326,63
1652031,301,63
1652039,334,63
1652053,313,63
1652064,312,63
1652064,337,63
1652082,304,63
1652095,333,63
1652104,328,63
1652113,312,63
1652124,342,63
1652135,314,63
1652146,327,63
1652147,335,63
1652164,309,63
1652164,341,63
1652183,322,63
1652197,323,63
1652207,345,63
1652216,314,63
1652228,340,63
1652231,336,63
1652247,319,63
1652258,349,63
1652264,321,63
1652264,332,63
1652289,346,63
1652297,317,63
1652310,347,63
1652314,331,63
1652330,325,63
1652340,352,63
1652347,322,63
1652360,346,63
1652372,347,63
1652380,320,63
1652393,359,63
1652402,338,63
1652413,348,63
1652423,362,63
1652433,324,63
1652443,346,63
1652447,333,63
1652464,328,63
1652464,353,63
1652484,321,63
1652490,343,63
1652498,345,63
1652514,321,63
1652514,353,63
1652530,324,63
1652546,332,63
1652556,349,63
1652566,318,63
1652576,362,63
1652587,372,63
1652597,476,62
1652607,503,62
1652617,341,62
1652617,289,62
1652631,346,62
1652647,315,62
1652659,349,62
1652669,325,62
1652679,332,62
1652689,351,62
1652697,322,62
1652710,352,62
1652721,342,62
1652730,333,62
1652741,360,62
1652747,332,62
1652762,356,62
1652772,363,62
1652781,345,62
1652792,385,62
1652798,367,62
1652798,381,62
1652824,408,62
1652829,382,62
1652844,413,62
1652854,394,62
1652864,360,62
1652874,364,62
1652883,315,62
1652895,327,62
1652906,325,62
1652914,295,62
1652926,329,62
1652934,305,62
1652946,309,62
1652956,328,62
1652964,296,62
1652977,322,62
1652984,311,62
1652997,304,62
1653008,332,62
1653014,304,62
1653029,322,62
1653039,332,62
1653047,305,62
1653060,338,62
1653070,315,62
1653080,316,62
1653090,335,62
1653097,303,62
1653097,332,62
1653121,328,62
1653131,312,62
1653141,340,62
1653148,313,62
1653148,326,62
1653171,336,62
1653181,308,62
1653192,340,62
1653197,324,62
1653213,321,62
1653222,346,62
1653230,312,62
1653244,338,62
1653254,333,62
1653264,316,62
1653275,349,62
1653284,317,62
1653296,335,62
1653297,347,62
1653314,325,62
1653326,357,62
1653336,323,62
1653346,319,62
1653356,345,62
1653363,313,62
1653378,336,62
1653387,333,62
1653398,314,62
1653409,345,62
1653418,314,62
1653428,328,62
1653439,343,62
1653446,315,62
1653460,348,62
1653470,331,62
1653479,341,62
1653491,399,62
1653496,460,61
1653511,430,61
1653521,310,61
1653531,287,61
1653531,353,61
1653548,317,61
1653562,332,61
1653572,344,61
1653581,314,61
1653593,350,61
1653597,336,61
1653613,329,61
1653624,357,61
1653630,326,61
1653645,353,61
1653655,356,61
1653663,339,61
1653675,375,61
1653684,358,61
1653695,369,61
1653706,398,61
1653714,374,61
1653727,413,61
1653734,407,61
1653747,393,61
1653747,403,61
1653764,344,61
1653764,341,61
1653784,331,61
1653798,297,61
1653809,327,61
1653814,298,61
1653814,302,61
1653840,319,61
1653847,287,61
1653860,318,61
1653870,305,61
1653880,296,61
1653891,326,61
1653897,298,61
1653911,317,61
1653922,323,61
1653931,298,61
1653942,334,61
1653947,309,61
1653963,316,61
1653973,336,61
1653982,306,61
1653993,336,61
1654004,321,61
1654014,309,61
1654014,341,61
1654031,309,61
1654045,326,61
1654055,331,61
1654064,309,61
1654075,337,61
1654085,318,61
1654096,322,61
1654106,342,61
1654113,313,61
1654127,338,61
1654137,332,61
1654147,324,61
1654158,358,61
1654168,326,61
1654178,336,61
1654185,336,61
1654197,311,61
1654197,342,61
1654214,321,61
1654230,323,61
1654240,342,61
1654247,308,61
1654260,341,61
1654271,331,61
1654281,318,61
1654285,348,61
1654297,319,61
1654312,335,61
1654315,358,61
1654332,359,61
1654341,480,62
1654348,408,62
1654348,302,62
1654365,317,62
1654381,324,62
1654394,335,62
1654405,337,62
1654414,322,62
1654425,351,62
1654431,326,62
1654438,338,62
1654446,354,62
1654463,322,62
1654477,362,62
1654487,343,62
1654496,343,62
1654507,372,62
1654514,340,62
1654514,375,62
1654538,377,62
1654548,370,62
1654558,410,62
1654563,390,62
1654579,408,62
1654588,413,62
1654596,366,62
1654610,372,62
1654614,330,62
1654630,311,62
1654640,329,62
1654647,293,62
1654661,314,62
1654671,315,62
1654681,296,62
1654690,327,62
1654697,298,62
1654712,307,62
1654714,320,62
1654730,292,62
1654743,324,62
1654747,308,62
1654763,303,62
1654773,332,62
1654782,299,62
1654794,321,62
1654805,324,62
1654815,303,62
1654825,336,62
1654833,308,62
1654845,318,62
1654847,335,62
1654864,304,62
1654864,336,62
1654885,319,62
1654897,311,62
1654907,338,62
1654914,309,62
1654928,330,62
1654936,331,62
1654947,312,62
1654957,342,62
1654967,319,62
1654979,331,62
1654989,347,62
1654997,317,62
1655010,344,62
1655020,327,62
1655030,313,62
1655040,344,62
1655047,310,62
1655061,327,62
1655071,331,62
1655080,307,62
1655091,338,62
1655097,315,62
1655097,322,62
1655114,339,62
1655131,308,62
1655140,337,62
1655150,335,62
1655164,335,62
1655164,421,63
1655184,478,63
1655194,391,63
1655198,294,63
1655214,305,63
1655225,347,63
1655235,319,63
1655246,325,63
1655248,348,63
1655262,318,63
1655277,349,63
1655285,337,63
1655297,325,63
1655302,358,63
1655318,332,63
1655328,349,63
1655336,359,63
1655336,335,63
1655353,371,63
1655368,355,63
1655379,366,63
1655385,396,63
1655400,377,63
1655403,411,63
1655418,408,63
1655431,387,63
1655441,394,63
1655451,338,63
1655461,332,63
1655469,331,63
1655482,292,63
1655490,323,63
1655502,301,63
1655513,299,63
1655519,323,63
1655534,292,63
1655537,316,63
1655553,311,63
1655553,292,63
1655569,325,63
1655585,298,63
1655595,311,63
1655602,324,63
1655616,297,63
1655624,330,63
1655635,314,63
1655646,311,63
1655651,335,63
1655668,306,63
1655678,326,63
1655685,326,63
1655697,307,63
1655702,338,63
1655718,310,63
1655727,321,63
1655736,334,63
1655736,307,63
1655759,340,63
1655769,319,63
1655780,316,63
1655786,341,63
1655800,310,63
1655802,332,63
1655819,330,63
1655832,313,63
1655836,347,63
1655851,317,63
1655852,328,63
1655869,348,63
1655882,319,63
1655893,351,63
1655902,336,63
1655914,317,63
1655924,343,63
1655934,313,63
1655943,333,63
1655952,331,63
1655965,309,63
1655969,341,63
1655985,315,63
1655995,322,63
1656002,342,63
1656016,309,63
1656026,339,63
1656036,326,63
1656047,319,63
1656052,365,63
1656068,401,64
1656077,512,64
1656087,434,64
1656098,268,64
1656108,324,64
1656118,312,64
1656129,319,64
1656135,339,64
1656135,310,64
1656160,340,64
1656168,329,64
1656180,321,64
1656186,350,64
1656200,321,64
1656211,340,64
1656218,347,64
1656231,326,64
1656242,360,64
1656252,342,64
1656252,351,64
1656269,377,64
1656283,354,64
1656293,394,64
1656301,392,64
1656313,381,64
1656319,406,64
1656333,360,64
1656344,353,64
1656351,340,64
1656366,302,64
1656375,327,64
1656385,304,64
1656396,305,64
1656402,326,64
1656416,294,64
1656427,324,64
1656436,316,64
1656447,301,64
1656452,331,64
1656468,300,64
1656478,314,64
1656488,321,64
1656499,298,64
1656509,330,64
1656519,310,64
1656529,311,64
1656535,331,64
1656550,300,64
1656560,328,64
1656569,320,64
1656580,306,64
1656586,339,64
1656602,307,64
1656611,322,64
1656618,333,64
1656632,305,64
1656635,336,64
1656652,320,64
1656661,316,64
1656670,340,64
1656683,307,64
1656693,334,64
1656703,330,64
1656714,311,64
1656724,345,64
1656735,317,64
1656744,326,64
1656752,339,64
1656765,310,64
1656770,343,64
1656785,327,64
1656796,322,64
1656802,344,64
1656817,312,64
1656822,334,64
1656835,331,64
1656847,313,64
1656858,346,64
1656867,320,64
1656878,327,64
1656887,344,64
1656899,314,64
1656909,346,64
1656919,330,64
1656929,320,64
1656935,347,64
1656950,317,64
1656960,336,64
1656969,346,64
1656969,327,64
1656991,357,64
1657002,334,64
1657012,338,64
1657019,344,64
1657026,317,64
1657036,349,64
1657052,332,64
1657062,323,64
1657068,348,64
1657084,318,64
1657086,339,64
1657103,339,64
1657115,316,64
1657119,350,64
1657135,325,64
1657145,330,64
1657153,356,64
1657166,344,64
1657175,472,63
1657185,524,63
1657196,411,63
1657202,281,63
1657202,318,63
1657227,333,63
1657235,333,63
1657235,311,63
1657252,343,63
1657269,324,63
1657277,329,63
1657286,347,63
1657299,318,63
1657309,349,63
1657318,340,63
1657318,329,63
1657336,362,63
1657350,333,63
1657352,357,63
1657369,368,63
1657381,350,63
1657387,389,63
1657402,375,63
1657412,385,63
1657419,412,63
1657432,377,63
1657435,387,63
1657451,359,63
1657451,324,63
1657469,341,63
1657478,304,63
1657487,318,63
1657502,325,63
1657515,299,63
1657519,330,63
1657535,311,63
1657545,309,63
1657552,333,63
1657566,299,63
1657576,326,63
1657587,317,63
1657589,300,63
1657601,331,63
1657617,303,63
1657628,313,63
1657635,322,63
1657635,297,63
1657652,329,63
1657669,309,63
1657679,308,63
1657687,332,63
1657700,297,63
1657709,324,63
1657719,320,63
1657719,304,63
1657736,336,63
1657751,307,63
1657753,319,63
1657769,330,63
1657782,301,63
1657787,334,63
1657801,315,63
1657812,310,63
1657818,333,63
1657833,301,63
1657840,326,63
1657852,323,63
1657852,304,63
1657869,337,63
1657885,309,63
1657887,315,63
1657902,331,63
1657902,300,63
1657919,332,63
1657935,315,63
1657945,310,63
1657952,338,63
1657967,306,63
1657968,327,63
1657987,327,63
1657995,306,63
1658002,338,63
1658017,310,63
1658028,316,63
1658035,333,63
1658035,303,63
1658052,335,63
1658069,323,63
1658079,313,63
1658087,342,63
1658100,310,63
1658110,331,63
1658118,333,63
1658130,309,63
1658142,349,63
1658151,329,63
1658162,332,63
1658168,352,63
1658182,314,63
1658192,336,63
1658201,325,63
1658213,313,63
1658218,342,63
1658233,308,63
1658236,326,63
1658253,329,63
1658253,306,63
1658270,337,63
1658284,315,63
1658295,318,63
1658302,338,63
1658315,304,63
1658326,344,63
1658335,369,63
1658335,470,61
1658351,529,61
1658367,352,61
1658377,263,61
1658387,334,61
1658398,299,61
1658407,331,61
1658418,310,61
1658428,313,61
1658435,335,61
1658448,305,61
1658453,333,61
1658469,326,61
1658479,314,61
1658490,348,61
1658500,320,61
1658511,339,61
1658518,352,61
1658530,332,61
1658541,372,61
1658551,361,61
1658562,373,61
1658569,404,61
1658582,380,61
1658592,413,61
1658601,405,61
1658613,365,61
1658619,375,61
1658634,328,61
1658644,328,61
1658653,332,61
1658653,300,61
1658670,331,61
1658684,314,61
1658695,311,61
1658705,336,61
1658716,304,61
1658726,328,61
1658735,324,61
1658747,305,61
1658757,339,61
1658767,311,61
1658777,321,61
1658787,334,61
1658798,305,61
1658802,336,61
1658818,321,61
1658829,315,61
1658835,343,61
1658849,310,61
1658860,334,61
1658869,333,61
1658881,314,61
1658890,347,61
1658901,321,61
1658911,330,61
1658919,345,61
1658923,313,61
1658936,346,61
1658952,333,61
1658963,324,61
1658968,351,61
1658983,319,61
1658993,340,61
1659002,343,61
1659002,323,61
1659019,357,61
1659029,333,61
1659045,339,61
1659052,356,61
1659066,325,61
1659071,355,61
1659085,344,61
1659087,336,61
1659102,361,61
1659117,330,61
1659118,348,61
1659135,353,61
1659147,330,61
1659157,361,61
1659167,338,61
1659178,340,61
1659187,359,61
1659198,330,61
1659208,358,61
1659218,347,61
1659229,338,61
1659237,363,61
1659237,340,61
1659251,359,61
1659268,365,61
1659278,342,61
1659287,364,61
1659301,335,61
1659311,337,61
1659319,359,61
1659332,324,61
1659336,351,61
1659352,341,61
1659363,327,61
1659369,357,61
1659383,326,61
1659393,344,61
1659402,354,61
1659414,326,61
1659424,358,61
1659434,354,61
1659437,391,61
1659452,531,60
1659465,487,60
1659469,354,60
1659485,297,60
1659496,330,60
1659502,351,60
1659517,320,60
1659526,334,60
1659534,348,60
1659547,319,60
1659558,352,60
1659568,335,60
1659578,331,60
1659588,357,60
1659599,328,60
1659602,354,60
1659618,356,60
1659630,341,60
1659635,376,60
1659635,356,60
1659652,375,60
1659669,397,60
1659680,379,60
1659688,415,60
1659688,401,60
1659702,388,60
1659719,392,60
1659733,338,60
1659742,344,60
1659751,330,60
1659763,305,60
1659773,336,60
1659784,308,60
1659794,318,60
1659802,332,60
1659814,301,60
1659824,333,60
1659835,315,60
1659846,306,60
1659851,332,60
1659866,302,60
1659875,325,60
1659885,325,60
1659897,305,60
1659902,340,60
1659916,308,60
1659919,316,60
1659936,334,60
1659947,304,60
1659958,333,60
1659968,321,60
1659978,312,60
1659989,341,60
1659999,312,60
1660009,332,60
1660018,335,60
1660030,313,60
1660040,344,60
1660051,322,60
1660052,326,60
1660069,346,60
1660082,315,60
1660092,344,60
1660101,335,60
1660112,321,60
1660118,348,60
1660133,316,60
1660135,334,60
1660152,342,60
1660163,318,60
1660169,348,60
1660184,327,60
1660189,330,60
1660202,350,60
1660214,322,60
1660225,349,60
1660235,349,60
1660246,335,60
1660252,365,60
1660266,334,60
1660276,337,60
1660285,343,60
1660297,320,60
1660302,353,60
1660318,327,60
1660328,328,60
1660335,347,60
1660348,318,60
1660352,346,60
1660368,339,60
1660379,322,60
1660389,352,60
1660389,323,60
1660403,344,60
1660419,366,60
1660429,420,60
1660436,515,60
1660451,389,60
1660452,264,60
1660469,347,60
1660482,312,60
1660489,336,60
1660502,335,60
1660503,318,60
1660519,352,60
1660528,320,60
1660535,336,60
1660552,351,60
1660564,323,60
1660573,355,60
1660584,342,60
1660595,340,60
1660601,368,60
1660615,340,60
1660625,370,60
1660635,377,60
1660646,366,60
1660652,406,60
1660652,385,60
1660669,400,60
1660685,410,60
1660689,361,60
1660707,364,60
1660717,326,60
1660728,307,60
1660735,327,60
1660749,290,60
1660752,313,60
1660768,309,60
1660779,293,60
1660790,325,60
1660800,296,60
1660801,304,60
1660818,320,60
1660831,290,60
1660840,321,60
1660845,309,60
1660861,302,60
1660869,331,60
1660882,302,60
1660890,322,60
1660902,321,60
1660913,300,60
1660918,334,60
1660933,306,60
1660944,309,60
1660953,330,60
1660963,301,60
1660974,329,60
1660985,318,60
1660995,308,60
1661003,337,60
1661015,305,60
1661026,323,60
1661036,327,60
1661036,300,60
1661052,335,60
1661052,313,60
1661076,319,60
1661086,337,60
1661097,309,60
1661103,344,60
1661118,332,60
1661128,323,60
1661136,349,60
1661147,309,60
1661151,328,60
1661169,335,60
1661180,306,60
1661186,336,60
1661200,317,60
1661210,315,60
1661218,339,60
1661231,306,60
1661239,333,60
1661239,328,60
1661252,309,60
1661269,345,60
1661282,328,60
1661290,360,60
1661302,454,61
1661313,437,61
1661319,358,61
1661333,272,61
1661344,322,61
1661351,339,61
1661364,310,61
1661374,335,61
1661384,331,61
1661395,316,61
1661402,347,61
1661415,324,61
1661426,334,61
1661435,352,61
1661446,323,61
1661452,359,61
1661457,344,61
1661478,347,61
1661486,374,61
1661498,352,61
1661502,384,61
1661519,390,61
1661529,380,61
1661536,418,61
1661548,396,61
1661553,395,61
1661568,387,61
1661580,329,61
1661590,341,61
1661601,314,61
1661611,300,61
1661618,325,61
1661632,294,61
1661637,315,61
1661651,317,61
1661662,294,61
1661668,324,61
1661668,300,61
1661693,305,61
1661702,323,61
1661714,294,61
1661719,323,61
1661734,315,61
1661744,306,61
1661752,336,61
1661752,308,61
1661775,327,61
1661785,328,61
1661796,304,61
1661803,337,61
1661803,313,61
1661826,312,61
1661835,336,61
1661835,305,61
1661853,331,61
1661868,321,61
1661878,308,61
1661885,338,61
1661890,311,61
1661908,330,61
1661919,333,61
1661928,311,61
1661936,346,61
1661936,324,61
1661952,329,61
1661970,343,61
1661978,306,61
1661991,332,61
1662001,323,61
1662011,311,61
1662018,341,61
1662032,309,61
1662036,327,61
1662052,334,61
1662052,307,61
1662069,342,61
1662083,321,61
1662090,321,61
1662102,344,61
1662102,324,61
1662119,369,61
1662135,453,62
1662135,446,62
1662152,362,62
1662165,269,62
1662169,332,62
1662185,332,62
1662196,310,62
1662202,343,62
1662217,325,62
1662227,324,62
1662236,350,62
1662236,321,62
1662258,346,62
1662268,345,62
1662278,330,62
1662285,361,62
1662290,335,62
1662309,351,62
1662319,368,62
1662327,350,62
1662336,389,62
1662336,382,62
1662352,384,62
1662368,417,62
1662381,385,62
1662391,395,62
1662402,372,62
1662412,327,62
1662419,341,62
1662428,303,62
1662436,306,62
1662452,325,62
1662463,291,62
1662469,322,62
1662484,305,62
1662494,299,62
1662502,327,62
1662514,296,62
1662518,315,62
1662534,317,62
1662536,296,62
1662551,332,62
1662566,309,62
1662568,317,62
1662585,333,62
1662591,305,62
1662601,336,62
1662617,323,62
1662627,314,62
1662636,341,62
1662648,308,62
1662652,328,62
1662668,332,62
1662679,308,62
1662685,341,62
1662699,317,62
1662702,322,62
1662719,341,62
1662730,309,62
1662735,338,62
1662735,330,62
1662752,317,62
1662769,349,62
1662779,323,62
1662791,342,62
1662801,350,62
1662812,321,62
1662819,345,62
1662832,320,62
1662842,323,62
1662851,346,62
1662863,312,62
1662873,341,62
1662884,332,62
1662894,314,62
1662901,346,62
1662914,317,62
1662924,332,62
1662935,341,62
1662945,317,62
1662953,348,62
1662953,345,62
1662969,403,63
1662986,525,63
1662991,414,63
1663002,301,63
1663018,314,63
1663027,313,63
1663035,342,63
1663035,313,63
1663052,327,63
1663068,340,63
1663079,316,63
1663085,348,63
1663100,332,63
1663110,329,63
1663119,354,63
1663131,323,63
1663135,350,63
1663151,353,63
1663152,337,63
1663168,375,63
1663182,354,63
1663191,373,63
1663202,394,63
1663202,369,63
1663218,404,63
1663233,387,63
1663236,364,63
1663251,369,63
1663264,316,63
1663273,326,63
1663284,319,63
1663295,293,63
1663302,322,63
1663302,296,63
1663319,305,63
1663335,321,63
1663336,291,63
1663352,320,63
1663367,308,63
1663371,299,63
1663385,328,63
1663397,296,63
1663402,319,63
1663418,322,63
1663428,299,63
1663435,333,63
1663449,307,63
1663459,314,63
1663468,333,63
1663468,304,63
1663485,332,63
1663500,320,63
1663502,310,63
1663520,340,63
1663526,308,63
1663541,326,63
1663551,331,63
1663561,307,63
1663568,338,63
1663582,317,63
1663592,321,63
1663603,340,63
1663613,308,63
1663618,337,63
1663633,328,63
1663643,315,63
1663652,342,63
1663652,314,63
1663674,337,63
1663685,347,63
1663692,322,63
1663702,354,63
1663715,328,63
1663719,321,63
1663735,347,63
1663747,314,63
1663752,340,63
1663767,330,63
1663776,315,63
1663786,346,63
1663792,313,63
1663808,331,63
1663818,338,63
1663827,309,63
1663835,345,63
1663835,327,63
1663853,338,63
1663869,395,63
1663879,476,62
1663885,485,62
1663900,341,62
1663910,268,62
1663918,346,62
1663926,310,62
1663941,324,62
1663951,338,62
1663962,307,62
1663969,341,62
1663982,325,62
1663993,318,62
1664002,343,62
1664013,312,62
1664023,338,62
1664034,340,62
1664039,321,62
1664052,358,62
1664064,336,62
1664069,354,62
1664084,377,62
1664092,355,62
1664102,396,62
1664102,388,62
1664126,383,62
1664135,399,62
1664135,342,62
1664151,344,62
1664167,330,62
1664177,299,62
1664185,327,62
1664198,300,62
1664204,305,62
1664218,323,62
1664218,292,62
1664235,323,62
1664249,310,62
1664260,300,62
1664269,327,62
1664269,297,62
1664286,317,62
1664301,319,62
1664302,296,62
1664318,331,62
1664332,309,62
1664335,314,62
1664352,332,62
1664362,303,62
1664369,330,62
1664376,321,62
1664393,310,62
1664402,339,62
1664402,309,62
1664419,331,62
1664434,338,62
1664444,311,62
1664453,344,62
1664453,322,62
1664469,323,62
1664485,343,62
1664496,314,62
1664501,340,62
1664516,331,62
1664526,319,62
1664535,351,62
1664547,321,62
1664557,337,62
1664567,345,62
1664578,317,62
1664588,350,62
1664598,329,62
1664602,328,62
1664618,352,62
1664629,320,62
1664637,346,62
1664650,341,62
1664660,322,62
1664668,353,62
1664680,326,62
1664685,338,62
1664701,349,62
1664702,319,62
1664718,351,62
1664732,331,62
1664735,327,62
1664752,358,62
1664762,322,62
1664769,349,62
1664784,353,62
1664793,333,62
1664801,368,62
1664813,335,62
1664818,335,62
1664834,350,62
1664845,320,62
1664852,350,62
1664865,334,62
1664875,328,62
1664886,351,62
1664893,318,62
1664902,342,62
1664916,341,62
1664918,321,62
1664935,353,62
1664947,328,62
1664953,339,62
1664967,370,62
1664970,440,61
1664985,546,61
1664999,431,61
1665002,253,61
1665019,348,61
1665025,317,61
1665036,333,61
1665036,337,61
1665052,316,61
1665069,351,61
1665078,326,61
1665086,332,61
1665101,350,61
1665111,318,61
1665119,349,61
1665132,340,61
1665136,333,61
1665152,366,61
1665162,342,61
1665169,365,61
1665169,375,61
1665194,362,61
1665202,405,61
1665202,389,61
1665224,395,61
1665235,413,61
1665236,365,61
1665251,368,61
1665265,340,61
1665269,311,61
1665285,334,61
1665294,298,61
1665302,314,61
1665317,322,61
1665327,298,61
1665336,329,61
1665336,307,61
1665358,307,61
1665368,328,61
1665378,299,61
1665386,326,61
1665394,317,61
1665401,303,61
1665419,336,61
1665430,305,61
1665435,317,61
1665450,326,61
1665460,301,61
1665469,334,61
1665481,317,61
1665485,311,61
1665502,338,61
1665502,303,61
1665519,330,61
1665533,325,61
1665535,309,61
1665551,342,61
1665563,312,61
1665568,324,61
1665575,337,61
1665594,309,61
1665601,340,61
1665614,322,61
1665625,317,61
1665635,341,61
1665645,312,61
1665652,335,61
1665665,331,61
1665677,314,61
1665685,347,61
1665696,321,61
1665706,330,61
1665717,342,61
1665728,311,61
1665735,343,61
1665748,328,61
1665758,320,61
1665769,347,61
1665779,317,61
1665786,337,61
1665794,337,61
1665802,315,61
1665819,348,61
1665830,330,61
1665835,340,61
1665851,354,61
1665853,328,61
1665869,349,61
1665881,329,61
1665885,318,61
1665902,346,61
1665913,315,61
1665920,334,61
1665933,336,61
1665935,313,61
1665953,346,61
1665954,322,61
1665968,325,61
1665983,345,61
1665986,314,61
1666002,344,61
1666002,342,61
1666018,364,61
1666035,512,60
1666046,497,60
1666051,365,60
1666067,278,60
1666076,317,60
1666085,340,60
1666097,317,60
1666107,320,60
1666118,342,60
1666128,311,60
1666138,339,60
1666138,333,60
1666159,321,60
1666168,353,60
1666179,324,60
1666185,343,60
1666199,355,60
1666210,333,60
1666219,371,60
1666226,355,60
1666236,362,60
1666236,397,60
1666253,373,60
1666270,406,60
1666282,403,60
1666286,381,60
1666302,392,60
1666312,337,60
1666319,331,60
1666328,328,60
1666343,296,60
1666352,323,60
1666364,306,60
1666369,302,60
1666385,326,60
1666394,295,60
1666402,318,60
1666415,314,60
1666419,293,60
1666435,328,60
1666445,300,60
1666453,309,60
1666453,324,60
1666469,297,60
1666485,328,60
1666498,313,60
1666508,306,60
1666518,334,60
1666528,304,60
1666535,328,60
1666548,326,60
1666559,306,60
1666568,339,60
1666580,310,60
1666590,318,60
1666600,336,60
1666610,308,60
1666619,335,60
1666631,324,60
1666641,314,60
1666652,339,60
1666661,307,60
1666668,330,60
1666682,333,60
1666693,311,60
1666703,342,60
1666713,320,60
1666723,322,60
1666734,339,60
1666736,311,60
1666751,339,60
1666764,330,60
1666769,318,60
1666784,347,60
1666784,313,60
1666802,332,60
1666815,338,60
1666818,316,60
1666835,348,60
1666846,323,60
1666856,333,60
1666866,355,60
1666876,325,60
1666886,353,60
1666898,334,60
1666902,314,60
1666918,348,60
1666928,317,60
1666935,333,60
1666935,341,60
1666952,314,60
1666969,344,60
1666980,325,60
1666988,324,60
1667000,348,60
1667003,315,60
1667018,343,60
1667031,337,60
1667041,336,60
1667052,431,60
1667062,516,60
1667068,469,60
1667083,296,60
1667093,291,60
1667102,347,60
1667102,320,60
1667119,318,60
1667134,342,60
1667144,314,60
1667152,337,60
1667165,335,60
1667175,318,60
1667185,352,60
1667194,329,60
1667201,339,60
1667216,353,60
1667228,329,60
1667236,367,60
1667247,356,60
1667257,356,60
1667268,391,60
1667277,365,60
1667285,397,60
1667298,402,60
1667302,381,60
1667320,402,60
1667329,354,60
1667336,341,60
1667349,340,60
1667352,299,60
1667368,327,60
1667377,309,60
1667386,301,60
1667396,326,60
1667402,296,60
1667418,313,60
1667428,316,60
1667442,289,60
1667452,324,60
1667462,300,60
1667469,305,60
1667484,324,60
1667486,295,60
1667502,320,60
1667514,315,60
1667519,304,60
1667534,334,60
1667545,305,60
1667552,322,60
1667566,328,60
1667575,304,60
1667585,337,60
1667597,314,60
1667601,317,60
1667616,337,60
1667626,306,60
1667635,334,60
1667647,330,60
1667657,314,60
1667668,346,60
1667678,316,60
1667686,331,60
1667699,337,60
1667709,309,60
1667718,342,60
1667718,323,60
1667737,323,60
1667750,343,60
1667760,313,60
1667769,340,60
1667769,337,60
1667786,321,60
1667802,347,60
1667811,329,60
1667819,343,60
1667832,356,60
1667842,324,60
1667852,343,60
1667863,325,60
1667868,323,60
1667883,344,60
1667888,312,60
1667902,334,60
1667915,332,60
1667919,311,60
1667935,344,60
1667944,317,60
1667952,328,60
1667965,343,60
1667975,315,60
1667985,352,60
1667997,346,60
1668002,424,62
1668017,514,62
1668026,374,62
1668035,275,62
1668035,333,62
1668058,308,62
1668068,345,62
1668078,318,62
1668086,329,62
1668099,344,62
1668109,318,62
1668119,348,62
1668130,335,62
1668137,324,62
1668150,355,62
1668160,329,62
1668169,350,62
1668169,356,62
1668185,339,62
1668202,378,62
1668202,362,62
1668218,375,62
1668232,405,62
