Timestamp,ECGValue,BPM
404500,351,41
404509,300,41
404521,338,41
404531,318,41
404541,301,41
404551,343,41
404557,297,41
404572,328,41
404575,333,41
404591,299,41
404603,346,41
404608,310,41
404622,316,41
404625,345,41
404642,299,41
404651,344,41
404658,326,41
404674,305,41
404685,348,41
404691,305,41
404706,330,41
404716,343,41
404725,303,41
404736,352,41
404742,320,41
404756,321,41
404767,353,41
404775,302,41
404788,342,41
404798,332,41
404808,309,41
404818,355,41
404825,314,41
404839,336,41
404849,350,41
404859,306,41
404859,353,41
404874,321,41
404890,318,41
404899,357,41
404908,306,41
404921,344,41
404932,345,41
404942,317,41
404949,368,41
404957,327,41
404972,335,41
404975,345,41
404992,306,41
405003,350,41
405008,323,41
405024,315,41
405033,354,41
405042,303,41
405054,337,41
405065,338,41
405074,307,41
405075,355,41
405092,320,41
405105,332,41
405113,365,41
405125,358,41
405137,519,41
405147,481,41
405157,306,41
405167,307,41
405175,306,41
405188,332,41
405198,338,41
405209,303,41
405219,352,41
405225,316,41
405240,320,41
405241,348,41
405259,303,41
405270,348,41
405275,332,41
405291,318,41
405300,368,41
405309,325,41
405321,360,41
405332,377,41
405342,347,41
405342,403,41
405358,376,41
405372,383,41
405383,407,41
405391,338,41
405403,355,41
405413,324,41
405424,292,41
405425,336,41
405442,286,41
405454,310,41
405465,320,41
405475,279,41
405486,330,41
405492,299,41
405492,296,41
405508,332,41
405526,280,41
405526,320,41
405542,313,41
405558,286,41
405568,333,41
405574,290,41
405574,311,41
405599,328,41
405607,287,41
405619,336,41
405625,304,41
405625,300,41
405642,337,41
405658,289,41
405670,327,41
405675,323,41
405691,294,41
405701,344,41
405708,303,41
405722,315,41
405732,336,41
405742,294,41
405753,340,41
405763,314,41
405773,305,41
405783,346,41
405791,297,41
405804,330,41
405814,330,41
405824,298,41
405825,350,41
405841,311,41
405852,322,41
405865,351,41
405875,308,41
405886,354,41
405892,329,41
405907,305,41
405917,347,41
405926,302,41
405926,331,41
405942,331,41
405958,298,41
405969,348,41
405975,311,41
405975,320,41
405999,348,41
406008,304,41
406019,352,41
406030,333,41
406040,317,41
406050,384,41
406058,417,41
406071,535,46
406081,434,46
406091,241,46
406102,347,46
406112,315,46
406122,320,46
406132,349,46
406141,304,46
406153,346,46
406162,336,46
406173,317,46
406183,364,46
406191,320,46
406204,343,46
406215,357,46
406224,324,46
406234,376,46
406241,351,46
406256,359,46
406267,397,46
406275,362,46
406287,408,46
406293,402,46
406307,378,46
406308,408,46
406326,343,46
406326,341,46
406342,343,46
406358,291,46
406369,338,46
406375,306,46
406389,302,46
406400,337,46
406407,291,46
406420,322,46
406427,319,46
406441,294,46
406441,342,46
406458,300,46
406471,318,46
406481,338,46
406491,297,46
406503,346,46
406511,321,46
406522,312,46
406526,351,46
406542,305,46
406551,337,46
406559,337,46
406559,304,46
406584,351,46
406591,312,46
406605,328,46
406615,350,46
406625,305,46
406636,346,46
406641,329,46
406656,312,46
406667,358,46
406675,313,46
406686,342,46
406692,345,46
406707,317,46
406708,367,46
406726,327,46
406739,337,46
406748,354,46
406758,304,46
406758,350,46
406775,332,46
406775,315,46
406792,356,46
406808,310,46
406808,334,46
406827,346,46
406827,309,46
406851,354,46
406858,324,46
406871,329,46
406882,356,46
406891,328,46
406902,400,46
406908,487,46
406923,424,46
406934,337,46
406942,281,46
406942,346,46
406964,338,46
406975,308,46
406984,356,46
406991,327,46
407005,330,46
407016,361,46
407024,319,46
407036,355,46
407041,348,46
407056,328,46
407066,380,46
407074,340,46
407088,367,46
407098,389,46
407107,355,46
407113,412,46
407127,396,46
407139,397,46
407149,432,46
407158,372,46
407169,384,46
407175,359,46
407175,310,46
407192,343,46
407208,296,46
407208,313,46
407227,331,46
407227,287,46
407252,330,46
407259,306,46
407272,297,46
407282,335,46
407291,289,46
407303,324,46
407308,324,46
407324,295,46
407327,346,46
407342,308,46
407352,320,46
407364,341,46
407374,296,46
407385,342,46
407391,320,46
407405,309,46
407415,350,46
407425,302,46
407427,335,46
407442,337,46
407457,301,46
407460,352,46
407474,314,46
407487,325,46
407498,350,46
407508,309,46
407519,348,46
407527,333,46
407539,322,46
407541,368,46
407558,320,46
407570,343,46
407575,338,46
407590,300,46
407592,349,46
407608,313,46
407622,319,46
407628,346,46
407641,299,46
407651,343,46
407658,326,46
407672,307,46
407683,354,46
407692,308,46
407692,334,46
407713,351,46
407724,335,46
407734,476,46
407742,485,46
407754,361,46
407765,297,46
407775,307,46
407785,337,46
407792,328,46
407792,307,46
407816,355,46
407825,316,46
407837,339,46
407842,354,46
407857,311,46
407867,362,46
407874,335,46
407874,332,46
407892,369,46
407908,328,46
407908,370,46
407928,374,46
407940,354,46
407949,412,46
407958,378,46
407970,396,46
407980,410,46
407990,344,46
408001,366,46
408008,326,46
408021,306,46
408028,341,46
408041,290,46
408053,321,46
408061,319,46
408073,289,46
408076,337,46
408092,295,46
408103,307,46
408108,330,46
408124,286,46
408135,336,46
408142,313,46
408149,300,46
408159,341,46
408175,296,46
408186,328,46
408192,334,46
408206,301,46
408209,346,46
408224,310,46
408236,318,46
408245,341,46
408258,297,46
408268,342,46
408275,323,46
408288,308,46
408298,352,46
408308,305,46
408319,332,46
408328,338,46
408340,303,46
408342,353,46
408359,318,46
408371,321,46
408381,355,46
408391,304,46
408401,345,46
408409,336,46
408409,315,46
408428,363,46
408442,320,46
408453,346,46
408459,358,46
408459,317,46
408475,351,46
408491,319,46
408504,322,46
408514,354,46
408525,307,46
408535,346,46
408542,335,46
408555,309,46
408565,354,46
408575,312,46
408586,331,46
408591,345,46
408607,304,46
408616,362,46
408625,365,46
408637,471,46
408642,515,41
408658,338,41
408669,288,41
408675,333,41
408688,299,41
408699,348,41
408708,309,41
408720,326,41
408728,346,41
408728,305,41
408750,352,41
408758,329,41
408758,321,41
408781,357,41
408791,313,41
408802,351,41
408808,356,41
408823,330,41
408828,385,41
408841,356,41
408841,376,41
408858,406,41
408873,364,41
408875,403,41
408892,366,41
408892,329,41
408915,350,41
408924,294,41
408928,317,41
408942,321,41
408956,283,41
408966,334,41
408975,297,41
408986,306,41
408991,332,41
409007,286,41
409017,331,41
409025,314,41
409038,297,41
409049,344,41
409058,299,41
409068,324,41
409075,333,41
409089,297,41
409091,347,41
409108,313,41
409120,314,41
409128,347,41
409141,301,41
409143,342,41
409158,329,41
409171,307,41
409175,353,41
409191,310,41
409202,334,41
409212,347,41
409222,304,41
409228,353,41
409242,323,41
409252,320,41
409259,356,41
409275,305,41
409276,344,41
409292,338,41
409304,312,41
409309,361,41
409325,317,41
409336,337,41
409342,351,41
409357,307,41
409366,355,41
409375,333,41
409387,326,41
409397,363,41
409407,323,41
409410,354,41
409425,354,41
409438,319,41
409448,354,41
409458,316,41
409469,331,41
409475,349,41
409489,306,41
409499,350,41
409508,326,41
409520,315,41
409531,357,41
409540,307,41
409551,339,41
409560,342,41
409572,309,41
409582,359,41
409592,337,41
409602,417,41
409609,550,40
409609,426,40
409633,288,40
409642,307,40
409654,309,40
409663,345,40
409674,297,40
409685,328,40
409692,335,40
409705,301,40
409712,352,40
409725,315,40
409736,323,40
409742,353,40
409756,312,40
409767,355,40
409775,348,40
409787,333,40
409797,387,40
409807,349,40
409813,380,40
409825,399,40
409838,365,40
409842,417,40
409858,374,40
409869,351,40
409875,362,40
409890,298,40
409900,332,40
409908,309,40
409921,284,40
409931,336,40
409942,291,40
409952,311,40
409961,327,40
409961,287,40
409982,336,40
409992,305,40
410002,303,40
410009,339,40
410009,290,40
410033,328,40
410042,323,40
410054,295,40
410058,342,40
410074,298,40
410075,315,40
410091,337,40
410106,292,40
410116,342,40
410126,316,40
410129,307,40
410142,345,40
410157,303,40
410159,336,40
410175,329,40
410187,303,40
410198,346,40
410208,305,40
410209,319,40
410225,343,40
410229,300,40
410243,345,40
410259,323,40
410269,316,40
410277,355,40
410290,306,40
410299,340,40
410309,340,40
410321,306,40
410330,357,40
410341,327,40
410352,336,40
410359,361,40
410359,313,40
410375,350,40
410392,326,40
410401,312,40
410409,354,40
410423,305,40
410434,333,40
410442,337,40
410442,302,40
410459,353,40
410475,317,40
410485,320,40
410491,352,40
410505,305,40
410508,347,40
410525,348,40
410537,364,40
410543,508,40
410549,417,40
410559,311,40
410575,312,40
410588,315,40
410598,347,40
410609,320,40
410619,322,40
410626,349,40
410630,309,40
410649,349,40
410658,340,40
410670,317,40
410680,364,40
410691,326,40
410701,350,40
410708,367,40
410720,335,40
410731,386,40
410741,364,40
410752,372,40
410760,415,40
410760,375,40
410783,410,40
410791,398,40
410803,348,40
410814,372,40
410824,316,40
410830,318,40
410843,333,40
410853,288,40
410859,330,40
410875,302,40
410886,296,40
410892,337,40
410906,286,40
410908,319,40
410925,317,40
410937,285,40
410947,338,40
410958,300,40
410968,311,40
410975,337,40
410988,292,40
410999,340,40
411008,322,40
411019,306,40
411025,344,40
411040,304,40
411042,330,40
411058,332,40
411071,302,40
411075,347,40
411091,313,40
411102,323,40
411109,349,40
411122,301,40
411131,342,40
411142,328,40
411152,313,40
411161,356,40
411173,315,40
411184,336,40
411192,348,40
411204,318,40
411214,363,40
411224,332,40
411234,324,40
411243,346,40
411255,303,40
411260,341,40
411274,332,40
411286,309,40
411292,349,40
411301,306,40
411309,328,40
411325,342,40
411331,305,40
411341,356,40
411358,326,40
411368,327,40
411375,369,40
411375,341,40
411399,466,40
411408,461,40
411419,312,40
411425,303,40
411440,318,40
411450,320,40
411458,337,40
411471,302,40
411481,349,40
411491,326,40
411502,319,40
411511,356,40
411522,313,40
411532,350,40
411541,353,40
411553,327,40
411558,377,40
411574,342,40
411583,365,40
411592,393,40
411592,361,40
411609,411,40
411625,394,40
411632,389,40
411643,423,40
411653,354,40
411666,361,40
411675,341,40
411686,298,40
411696,338,40
411707,301,40
411718,310,40
411725,335,40
411738,291,40
411748,332,40
411758,315,40
411760,302,40
411775,339,40
411788,294,40
411800,323,40
411809,330,40
411812,296,40
411826,346,40
411840,312,40
411851,319,40
411859,344,40
411859,299,40
411881,341,40
411891,327,40
411901,309,40
411910,350,40
411910,304,40
411932,330,40
411943,338,40
411954,301,40
411958,349,40
411974,318,40
411984,319,40
411991,352,40
412004,305,40
412015,339,40
412025,333,40
412035,314,40
412042,354,40
412056,315,40
412066,338,40
412075,352,40
412087,313,40
412097,356,40
412107,319,40
412118,316,40
412125,351,40
412137,305,40
412148,340,40
412158,332,40
412169,310,40
412175,354,40
412189,311,40
412200,333,40
412209,349,40
412220,307,40
412225,355,40
412241,337,40
412250,346,40
412260,468,40
412271,480,40
412275,408,40
412291,281,40
412291,302,40
412308,347,40
412323,310,40
412333,324,40
412342,347,40
412353,306,40
412363,353,40
412373,332,40
412384,321,40
412392,364,40
412405,320,40
412411,350,40
412425,357,40
412436,328,40
412442,380,40
412442,350,40
412467,369,40
412475,401,40
412475,365,40
412493,415,40
412507,394,40
412518,363,40
412525,382,40
412539,317,40
412549,329,40
412559,329,40
412569,288,40
412575,335,40
412590,302,40
412592,304,40
412608,334,40
412620,288,40
412625,330,40
412641,315,40
412642,297,40
412659,341,40
412659,296,40
412677,322,40
412691,330,40
412702,296,40
412709,346,40
412723,315,40
412734,316,40
412743,348,40
412743,302,40
412759,336,40
412775,332,40
412785,304,40
412792,352,40
412801,312,40
412810,332,40
412825,343,40
412833,305,40
412841,353,40
412857,324,40
412866,321,40
412875,354,40
412887,306,40
412892,342,40
412908,336,40
412918,310,40
412925,358,40
412939,318,40
412949,333,40
412958,351,40
412969,310,40
412976,362,40
412990,337,40
413000,331,40
413010,368,40
413021,304,40
413026,340,40
413041,344,40
413052,310,40
413059,358,40
413059,316,40
413076,328,40
413092,352,40
413101,310,40
413110,352,40
413123,333,40
413134,322,40
413142,360,40
413151,329,40
413165,381,40
413174,485,40
413185,472,40
413192,396,40
413205,259,40
413216,326,40
413225,345,40
413237,300,40
413247,347,40
413257,332,40
413262,314,40
413275,358,40
413288,314,40
413293,342,40
413309,350,40
413318,316,40
413325,367,40
413339,334,40
413349,341,40
413360,377,40
413370,337,40
413380,386,40
413391,384,40
413401,368,40
413410,419,40
413410,373,40
413425,379,40
413442,368,40
413452,309,40
413458,345,40
413458,308,40
413483,301,40
413492,336,40
413501,288,40
413509,324,40
413524,316,40
413534,294,40
413542,339,40
413549,296,40
413565,316,40
413575,333,40
413586,288,40
413592,338,40
413606,308,40
413609,304,40
413625,339,40
413637,292,40
413647,329,40
413657,325,40
413668,300,40
413675,346,40
413688,304,40
413693,320,40
413709,337,40
413719,292,40
413725,341,40
413740,320,40
413750,310,40
413759,346,40
413759,301,40
413776,334,40
413790,338,40
413792,305,40
413809,350,40
413822,313,40
413832,325,40
413842,348,40
413849,301,40
413858,348,40
413872,330,40
413884,311,40
413892,354,40
413903,309,40
413909,341,40
413909,342,40
413935,312,40
413943,366,40
413951,333,40
413959,340,40
413976,359,40
413976,304,40
413993,348,40
414002,333,40
414017,315,40
414025,354,40
414038,311,40
414043,337,40
414058,341,40
414068,303,40
414076,354,40
414076,319,40
414099,321,40
414108,358,40
414119,323,40
414126,401,40
414140,507,35
414142,462,35
414160,357,35
414171,271,35
414175,337,35
414191,345,35
414192,306,35
414209,351,35
414222,325,35
414232,319,35
414242,354,35
414242,309,35
414263,348,35
414274,341,35
414275,322,35
414292,371,35
414301,331,35
414310,356,35
414325,375,35
414333,342,35
414342,400,35
414356,383,35
414366,380,35
414376,419,35
414376,366,35
414394,382,35
414406,359,35
414417,310,35
414426,343,35
414438,297,35
414448,309,35
414458,326,35
414469,282,35
414476,329,35
414489,309,35
414492,293,35
414510,333,35
414519,286,35
414525,314,35
414540,318,35
414551,287,35
414559,336,35
414572,302,35
414581,309,35
414591,339,35
414591,292,35
414608,336,35
414622,320,35
414633,303,35
414643,345,35
414653,301,35
414663,326,35
414674,335,35
414676,293,35
414692,342,35
414705,308,35
414709,311,35
414725,339,35
414735,295,35
414741,336,35
414756,322,35
414763,305,35
414775,349,35
414775,304,35
414792,326,35
414807,342,35
414808,307,35
414827,359,35
414838,326,35
414842,319,35
414858,345,35
414869,301,35
414875,337,35
414875,326,35
414893,301,35
414909,350,35
414909,308,35
414925,325,35
414941,340,35
414951,304,35
414958,347,35
414958,317,35
414982,320,35
414992,370,35
415003,350,35
415008,476,35
415023,433,35
415033,289,35
415042,316,35
415042,318,35
415058,320,35
415074,346,35
415076,308,35
415092,354,35
415104,328,35
415115,325,35
415125,361,35
415136,315,35
415142,350,35
415157,353,35
415166,325,35
415175,376,35
415187,344,35
415192,365,35
415192,395,35
415218,360,35
415225,413,35
415238,397,35
415249,386,35
415259,418,35
415269,350,35
415276,356,35
415290,341,35
415300,297,35
415308,338,35
415320,297,35
415326,307,35
415333,329,35
415343,280,35
415360,322,35
415372,304,35
415375,291,35
415392,336,35
415400,292,35
415408,317,35
415423,325,35
415433,295,35
415442,338,35
415454,306,35
415459,313,35
415475,342,35
415484,297,35
415492,339,35
415505,326,35
415509,307,35
415525,353,35
415536,303,35
415542,324,35
415556,340,35
415559,301,35
415575,347,35
415588,319,35
415592,315,35
415608,349,35
415618,302,35
415625,342,35
415638,337,35
415649,310,35
415659,357,35
415670,318,35
415675,338,35
415691,357,35
415699,318,35
415709,359,35
415721,322,35
415731,318,35
415741,358,35
415743,305,35
415759,341,35
415769,336,35
415782,308,35
415792,354,35
415803,314,35
415809,330,35
415824,352,35
415833,309,35
415844,356,35
415854,341,35
415864,346,35
415875,479,35
415886,473,35
415892,394,35
415905,283,35
415916,306,35
415925,348,35
415936,313,35
415941,320,35
415957,346,35
415967,303,35
415975,349,35
415987,328,35
415992,316,35
416008,359,35
416018,317,35
416026,349,35
416039,356,35
416043,327,35
416059,382,35
416070,354,35
416076,367,35
416076,404,35
416101,364,35
416108,408,35
416122,394,35
416132,356,35
416142,377,35
416152,312,35
416159,325,35
416172,330,35
416183,287,35
416192,334,35
416203,302,35
416211,302,35
416224,334,35
416234,288,35
416242,327,35
416255,316,35
416264,293,35
416275,342,35
416283,297,35
416292,321,35
416292,337,35
416316,296,35
416326,343,35
416336,316,35
416342,311,35
416349,344,35
416367,297,35
416375,336,35
416375,330,35
416393,302,35
416408,348,35
416410,307,35
416425,324,35
416440,337,35
416443,295,35
416459,344,35
416470,322,35
416475,315,35
416490,350,35
416501,305,35
416509,339,35
416521,339,35
416532,309,35
416542,358,35
416552,319,35
416562,331,35
416573,356,35
416576,320,35
416592,362,35
416603,337,35
416611,324,35
416624,355,35
416634,310,35
416642,341,35
416654,344,35
416663,310,35
416675,354,35
416686,318,35
416692,322,35
416706,347,35
416708,304,35
416725,351,35
416737,331,35
416742,316,35
416757,367,35
416759,343,35
416775,465,35
416789,510,32
416792,363,32
416808,289,32
416819,318,32
416826,321,32
416840,349,32
416842,304,32
416860,343,32
416870,328,32
416876,314,32
416891,359,32
416901,316,32
416911,344,32
416911,355,32
416926,320,32
416942,368,32
416951,342,32
416959,348,32
416974,387,32
416983,349,32
416993,392,32
417004,395,32
417014,376,32
417025,418,32
417034,360,32
417042,357,32
417042,355,32
417066,299,32
417075,335,32
417086,306,32
417092,301,32
417100,338,32
417116,290,32
417125,327,32
417135,320,32
417142,293,32
417158,338,32
417168,299,32
417175,317,32
417189,337,32
417193,291,32
417209,337,32
417210,315,32
417226,304,32
417235,343,32
417251,299,32
417258,331,32
417271,333,32
417276,300,32
417292,345,32
417302,309,32
417309,319,32
417309,340,32
417333,299,32
417342,344,32
417353,325,32
417359,312,32
417373,354,32
417384,307,32
417392,335,32
417405,341,32
417412,308,32
417425,353,32
417435,321,32
417443,327,32
417451,352,32
417460,304,32
417475,347,32
417487,331,32
417492,315,32
417506,360,32
417509,316,32
417525,343,32
417538,345,32
417548,317,32
417559,363,32
417560,331,32
417575,329,32
417581,352,32
417600,303,32
417608,344,32
417620,333,32
417626,312,32
417635,357,32
417651,311,32
417659,330,32
417659,343,32
417677,306,32
417692,354,32
417702,325,32
417709,320,32
417722,359,32
417733,330,32
417742,461,32
417753,523,35
417763,388,35
417774,286,35
417784,307,35
417792,321,35
417805,339,35
417815,302,35
417825,347,35
417836,321,35
417842,321,35
417857,359,35
417866,311,35
417876,343,35
417887,347,35
417897,321,35
417907,370,35
417918,332,35
417925,351,35
417938,378,35
417948,346,35
417959,400,35
417959,383,35
417976,375,35
417976,416,35
418000,355,35
418009,363,35
418020,347,35
418026,301,35
418035,338,35
418052,298,35
418059,306,35
418059,331,35
418081,285,35
418092,330,35
418101,310,35
418109,293,35
418123,334,35
418125,287,35
418142,318,35
418154,323,35
418164,293,35
418174,337,35
418185,303,35
418192,311,35
418205,335,35
418213,288,35
418226,333,35
418236,321,35
418242,299,35
418256,343,35
418266,296,35
418275,318,35
418287,327,35
418293,295,35
418308,342,35
418318,311,35
418328,314,35
418338,344,35
418349,296,35
418359,340,35
418370,326,35
418376,306,35
418390,348,35
418400,310,35
418409,334,35
418411,346,35
418426,313,35
418436,365,35
418451,336,35
418459,327,35
418459,351,35
418476,302,35
418492,340,35
418503,335,35
418509,308,35
418522,350,35
418531,307,35
418542,327,35
418554,342,35
418564,304,35
418574,348,35
418585,322,35
418593,314,35
418593,359,35
418609,328,35
418626,444,35
418636,480,35
418642,334,35
418657,295,35
418660,323,35
418676,322,35
418687,344,35
418698,305,35
418708,350,35
418719,331,35
418725,319,35
418739,360,35
418743,315,35
418759,350,35
418760,352,35
418776,321,35
418776,375,35
418793,344,35
418809,359,35
418822,392,35
418826,360,35
418841,411,35
418852,399,35
418859,392,35
418872,428,35
418875,363,35
418892,366,35
418903,352,35
418909,303,35
418924,342,35
418926,303,35
418942,303,35
418955,335,35
418964,286,35
418976,328,35
418985,311,35
418992,290,35
419005,333,35
419016,288,35
419026,312,35
419036,330,35
419043,296,35
419058,340,35
419067,312,35
419076,315,35
419076,348,35
419093,302,35
419108,341,35
419119,333,35
419126,310,35
419138,352,35
419143,313,35
419159,325,35
419161,343,35
419176,304,35
419176,351,35
419193,326,35
419210,324,35
419222,357,35
419225,310,35
419242,349,35
419252,342,35
419259,317,35
419273,365,35
419276,324,35
419293,350,35
419302,368,35
419309,328,35
419323,372,35
419334,335,35
419342,327,35
419355,365,35
419365,320,35
419375,353,35
419386,349,35
419392,320,35
419407,369,35
419416,329,35
419426,339,35
419426,361,35
419442,317,35
419458,364,35
419468,342,35
419475,352,35
419489,469,35
419498,498,35
419508,421,35
419519,299,35
419526,315,35
419539,361,35
419549,324,35
419559,336,35
419570,361,35
419576,320,35
419591,364,35
419601,347,35
419608,336,35
419622,373,35
419632,330,35
419642,359,35
419653,368,35
419662,336,35
419673,391,35
419683,364,35
419693,383,35
419704,419,35
419710,377,35
419725,421,35
419725,408,35
419742,375,35
419755,392,35
419759,328,35
419776,337,35
419776,341,35
419796,299,35
419807,344,35
419817,310,35
419826,308,35
419837,339,35
419843,294,35
419851,328,35
419868,318,35
419876,298,35
419876,340,35
419892,299,35
419909,319,35
419920,333,35
419925,298,35
419940,342,35
419950,313,35
419959,310,35
419971,342,35
419981,296,35
419991,332,35
420002,324,35
420011,299,35
420023,344,35
420025,304,35
420043,320,35
420052,336,35
420058,297,35
420074,340,35
420084,312,35
420092,303,35
420092,338,35
420114,292,35
420125,322,35
420126,320,35
420142,289,35
420149,337,35
420166,302,35
420176,312,35
420176,332,35
420192,298,35
420207,340,35
420210,318,35
420227,307,35
420238,339,35
420243,288,35
420258,317,35
420259,320,35
420276,286,35
420276,334,35
420299,300,35
420309,303,35
420320,327,35
420326,286,35
420340,328,35
420350,311,35
420359,294,35
420372,338,35
420376,308,35
420392,416,35
420402,508,35
420409,379,35
420422,268,35
420433,283,35
420442,294,35
420453,321,35
420462,278,35
420474,320,35
420484,307,35
420492,290,35
420505,333,35
420515,292,35
420525,315,35
420535,331,35
420543,292,35
420543,340,35
420559,316,35
420575,322,35
420586,360,35
420592,323,35
420606,371,35
420617,372,35
420625,354,35
420638,402,35
420648,348,35
420659,346,35
420669,344,35
420675,287,35
420689,324,35
420699,290,35
420710,281,35
420710,316,35
420727,272,35
420740,305,35
420742,304,35
420759,277,35
420772,322,35
420781,282,35
420792,297,35
420802,319,35
420809,277,35
420809,324,35
420833,297,35
420842,289,35
420854,333,35
420859,284,35
420874,316,35
420885,320,35
420892,292,35
420905,339,35
420915,301,35
420926,311,35
420936,336,35
420942,292,35
420955,337,35
420966,319,35
420975,305,35
420987,346,35
420992,299,35
421008,332,35
421009,337,35
421026,306,35
421026,357,35
421043,317,35
421059,321,35
421069,348,35
421076,306,35
421076,345,35
421100,332,35
421109,313,35
421120,356,35
421131,313,35
421141,338,35
421151,344,35
421160,309,35
421160,364,35
421176,335,35
421192,334,35
421203,363,35
421209,309,35
421223,348,35
421227,337,35
421244,314,35
421254,358,35
421259,312,35
421275,337,35
421276,345,35
421292,309,35
421305,355,35
421310,328,35
421325,330,35
421337,360,35
421343,313,35
421356,364,35
421367,436,35
421376,510,34
421376,460,34
421398,258,34
421408,325,34
421419,342,34
421426,301,34
421439,350,34
421448,324,34
421459,321,34
421460,356,34
421475,312,34
421490,350,34
421493,348,34
421508,324,34
421521,369,34
421531,333,34
421541,353,34
421552,374,34
421559,342,34
421573,395,34
421582,381,34
421592,378,34
421602,419,34
421612,380,34
421623,399,34
421626,378,34
421642,327,34
421655,356,34
421665,309,34
421674,313,34
421685,336,34
421692,289,34
421706,335,34
421714,317,34
421726,304,34
421726,344,34
421743,294,34
421752,325,34
421767,331,34
421776,296,34
421776,341,34
421798,306,34
421809,316,34
421819,345,34
421826,299,34
421838,344,34
421849,327,34
421860,310,34
421860,349,34
421875,307,34
421891,331,34
421901,338,34
421910,302,34
421910,353,34
421927,318,34
421942,318,34
421952,351,34
421959,303,34
421972,344,34
421976,334,34
421993,313,34
422003,356,34
422009,315,34
422024,338,34
422034,348,34
422043,315,34
422055,365,34
422065,339,34
422075,339,34
422086,367,34
422092,307,34
422106,351,34
422116,342,34
422125,317,34
422137,362,34
422143,318,34
422143,334,34
422160,349,34
422176,313,34
422176,354,34
422193,331,34
422209,329,34
422219,365,34
422226,329,34
422239,382,34
422250,440,34
422259,473,34
422270,392,34
422277,263,34
422291,340,34
422301,350,34
422309,311,34
422322,361,34
422327,334,34
422342,328,34
422344,366,34
422360,320,34
422360,355,34
422383,354,34
422393,329,34
422404,378,34
422410,344,34
422410,359,34
422434,388,34
422443,351,34
422452,406,34
422458,399,34
422476,391,34
422476,437,34
422493,392,34
422500,404,34
422517,379,34
422526,327,34
422537,354,34
422543,312,34
422550,311,34
422567,332,34
422576,290,34
422576,336,34
422593,314,34
422609,297,34
422619,341,34
422626,298,34
422626,323,34
422650,329,34
422660,297,34
422671,344,34
422676,312,34
422691,320,34
422702,348,34
422710,303,34
422722,342,34
422726,326,34
422743,313,34
422753,354,34
422759,309,34
422774,330,34
422783,346,34
422792,307,34
422803,351,34
422810,321,34
422825,318,34
422835,350,34
422844,306,34
422856,345,34
422863,335,34
422876,311,34
422886,359,34
422892,318,34
422907,338,34
422917,355,34
422926,318,34
422937,365,34
422948,335,34
422958,327,34
422969,351,34
422975,307,34
422989,341,34
422999,338,34
423010,310,34
423010,354,34
423025,314,34
423040,329,34
423043,347,34
423059,304,34
423072,353,34
423077,326,34
423077,320,34
423102,373,34
423110,355,34
423122,488,34
423126,457,34
423142,312,34
423153,316,34
423159,316,34
423173,319,34
423183,346,34
423192,303,34
423205,352,34
423209,330,34
423225,317,34
423235,358,34
423244,320,34
423256,348,34
423262,353,34
423276,325,34
423286,374,34
423293,346,34
423307,360,34
423318,392,34
423326,359,34
423338,408,34
423344,398,34
423344,387,34
423369,420,34
423376,355,34
423389,359,34
423392,345,34
423410,300,34
423411,336,34
423427,304,34
423427,306,34
423444,335,34
423460,288,34
423471,327,34
423482,316,34
423492,299,34
423503,338,34
423509,298,34
423509,321,34
423527,331,34
423543,293,34
423553,342,34
423559,312,34
423574,311,34
423576,344,34
423594,299,34
423604,338,34
423609,329,34
423625,305,34
423635,348,34
423644,308,34
423650,330,34
423666,344,34
423675,304,34
423675,350,34
423693,319,34
423702,315,34
423718,350,34
423725,301,34
423739,337,34
423745,333,34
423759,310,34
423769,354,34
423775,313,34
423790,335,34
423793,348,34
423809,307,34
423821,360,34
423826,338,34
423841,333,34
423851,368,34
423859,314,34
423872,342,34
423882,337,34
423893,307,34
423902,355,34
423912,315,34
423923,326,34
423933,346,34
423943,304,34
423954,349,34
423964,330,34
423975,320,34
423984,359,34
423992,314,34
424005,362,34
424010,414,34
424026,487,34
424037,471,34
424044,294,34
424052,300,34
424059,350,34
424076,302,34
424076,348,34
424093,330,34
424108,316,34
424119,359,34
424126,316,34
424138,344,34
424149,348,34
424159,317,34
424170,366,34
424176,331,34
424190,338,34
424200,372,34
424209,330,34
424214,383,34
424226,377,34
424242,368,34
424245,417,34
424259,372,34
424259,396,34
424277,383,34
424293,327,34
424302,355,34
424311,309,34
424324,304,34
424327,333,34
424343,285,34
424354,324,34
424359,312,34
424375,293,34
424385,339,34
424393,293,34
424406,313,34
424416,326,34
424426,289,34
424436,337,34
424445,307,34
424456,307,34
424466,338,34
424475,293,34
424488,332,34
424493,324,34
424509,299,34
424518,346,34
424526,303,34
424539,323,34
424545,337,34
424559,295,34
424569,345,34
424576,320,34
424576,314,34
424601,350,34
424609,302,34
424621,337,34
424626,336,34
424642,308,34
424652,353,34
424660,312,34
424660,322,34
424676,343,34
424692,304,34
424703,350,34
424710,325,34
424724,314,34
424726,351,34
424743,306,34
424755,337,34
424760,334,34
424775,312,34
424775,361,34
424793,324,34
424806,333,34
424809,352,34
424826,302,34
424837,344,34
424846,322,34
424846,311,34
424861,348,34
424877,304,34
424877,336,34
424893,340,34
424909,309,34
424910,356,34
424927,317,34
424927,328,34
424950,349,34
424959,317,34
424970,375,34
424976,460,34
424991,490,34
425000,419,34
425009,241,34
425022,329,34
425031,333,34
425042,295,34
425053,348,34
425060,315,34
425060,322,34
425077,350,34
425093,308,34
425104,350,34
425109,335,34
425124,318,34
425135,366,34
425143,322,34
425155,350,34
425164,363,34
425176,338,34
425185,394,34
425193,371,34
425202,381,34
425208,417,34
425227,374,34
425238,394,34
425246,358,34
425251,319,34
425259,349,34
425276,299,34
425288,320,34
425299,330,34
425309,290,34
425319,334,34
425326,306,34
425339,305,34
425346,341,34
425359,294,34
425370,327,34
425376,322,34
425391,298,34
425400,348,34
425410,304,34
425410,319,34
425426,336,34
425443,298,34
425452,342,34
425459,314,34
425473,310,34
425475,345,34
425493,300,34
425504,333,34
425509,330,34
425525,301,34
425535,346,34
425543,311,34
425547,324,34
425566,343,34
425576,301,34
425577,344,34
425593,318,34
425607,314,34
425617,347,34
425626,302,34
425637,336,34
425646,337,34
425658,309,34
425660,358,34
425676,322,34
425689,337,34
425699,356,34
425709,307,34
425710,341,34
425727,325,34
425727,311,34
425751,350,34
425760,304,34
425760,333,34
425776,337,34
425791,303,34
425802,351,34
425810,313,34
425823,325,34
425833,348,34
425842,304,34
425852,357,34
425860,361,34
425860,417,34
425884,503,28
425893,341,28
425905,278,28
425910,343,28
425925,307,28
425935,350,28
425945,318,28
425955,326,28
425965,355,28
425975,305,28
425987,354,28
425992,338,28
426007,322,28
426017,366,28
426026,327,28
426038,352,28
426047,367,28
426059,336,28
426060,390,28
426076,366,28
426088,378,28
426100,417,28
426109,377,28
426110,417,28
426126,386,28
426141,342,28
426151,364,28
426159,308,28
426171,318,28
426176,328,28
426192,287,28
426202,335,28
426209,303,28
426223,302,28
426233,335,28
426242,291,28
426253,322,28
426263,316,28
426263,295,28
426276,342,28
426293,300,28
426304,321,28
426310,338,28
426325,297,28
426335,343,28
426342,317,28
426357,312,28
426360,343,28
426376,298,28
426386,335,28
426392,332,28
426407,300,28
426418,345,28
426426,310,28
426426,326,28
426447,342,28
426458,302,28
426469,344,28
426476,322,28
426490,315,28
426494,352,28
426510,304,28
426520,340,28
426527,338,28
426540,307,28
426551,359,28
426560,326,28
426572,338,28
426582,359,28
426593,313,28
426602,346,28
426609,325,28
426623,316,28
426634,355,28
426643,307,28
426654,337,28
426660,340,28
426674,306,28
426676,355,28
426693,318,28
426705,321,28
426710,348,28
426725,308,28
426736,354,28
426744,352,28
426751,406,28
426764,526,28
426776,390,28
426776,283,28
426794,329,28
426808,305,28
426810,350,28
426827,313,28
426838,321,28
426848,352,28
426859,310,28
426869,348,28
426876,338,28
426890,322,28
426900,364,28
426909,322,28
426920,349,28
426931,364,28
426941,334,28
426949,385,28
426961,361,28
426972,370,28
426982,410,28
426992,368,28
427003,409,28
427009,390,28
427024,342,28
427033,366,28
427043,310,28
427049,321,28
427060,329,28
427075,286,28
427076,333,28
427092,301,28
427106,305,28
427111,338,28
427126,290,28
427136,328,28
427143,318,28
427157,297,28
427160,344,28
427176,301,28
427187,321,28
427194,337,28
427208,298,28
427218,344,28
427226,321,28
427226,313,28
427249,351,28
427259,304,28
427269,338,28
427277,333,28
427290,304,28
427301,353,28
427309,311,28
427321,328,28
427327,347,28
427327,304,28
427349,351,28
427359,328,28
427359,320,28
427374,354,28
427393,309,28
427403,341,28
427414,341,28
427420,312,28
427434,361,28
427437,318,28
427453,333,28
427464,357,28
427470,312,28
427485,353,28
427487,336,28
427503,324,28
427517,359,28
427527,321,28
427536,354,28
427546,352,28
427554,320,28
427567,358,28
427570,318,28
427587,329,28
427587,350,28
427605,306,28
427618,348,28
427629,329,28
427636,311,28
427649,352,28
427653,310,28
427670,334,28
427680,340,28
427686,309,28
427701,362,28
427708,342,28
427720,435,28
427720,534,31
427736,395,31
427752,283,31
427762,321,31
427770,307,31
427782,348,31
427786,306,31
427803,331,31
427813,338,31
427820,305,31
427820,350,31
427844,321,31
427854,326,31
427865,360,31
427870,315,31
427886,355,31
427896,351,31
427904,334,31
427917,381,31
427927,346,31
427937,382,31
427948,400,31
427955,363,31
427968,413,31
427978,372,31
427987,349,31
427998,361,31
428008,299,31
428019,326,31
428020,311,31
428037,285,31
428049,330,31
428054,286,31
428070,303,31
428080,323,31
428087,285,31
428101,329,31
428112,300,31
428121,298,31
428121,335,31
428137,288,31
428152,323,31
428163,315,31
428171,292,31
428171,336,31
428194,296,31
428204,313,31
428212,329,31
428221,294,31
428221,339,31
428236,312,31
428254,303,31
428263,342,31
428270,296,31
428286,329,31
428296,330,31
428304,296,31
428309,343,31
428327,302,31
428337,318,31
428347,340,31
428353,295,31
428368,339,31
428379,317,31
428387,308,31
428399,345,31
428409,299,31
428419,332,31
428420,335,31
428437,302,31
428450,352,31
428461,320,31
428470,331,31
428471,354,31
428487,300,31
428501,340,31
428509,320,31
428520,310,31
428532,349,31
428543,301,31
428553,331,31
428563,331,31
428570,302,31
428584,348,31
428587,315,31
428603,324,31
428615,345,31
428620,301,31
428636,359,31
428637,376,31
428654,461,31
428663,459,31
428676,295,31
428686,298,31
428697,339,31
428704,299,31
428711,346,31
428727,313,31
428737,319,31
428737,347,31
428754,304,31
428761,349,31
428779,334,31
428787,320,31
428787,365,31
428809,324,31
428820,352,31
428830,366,31
428837,337,31
428851,390,31
428861,374,31
428870,380,31
428881,417,31
428887,377,31
428902,407,31
428912,375,31
428920,333,31
428933,357,31
428937,299,31
428953,318,31
428964,329,31
428970,287,31
428970,332,31
428988,303,31
429004,299,31
429015,329,31
429020,286,31
429035,326,31
429038,316,31
429053,293,31
429066,337,31
429071,298,31
429086,320,31
429097,334,31
429103,297,31
429117,341,31
429120,317,31
429138,314,31
429138,346,31
429154,302,31
429164,338,31
429171,329,31
429187,305,31
429199,349,31
429203,311,31
429220,325,31
429231,342,31
429238,301,31
429252,346,31
429261,325,31
429271,321,31
429271,357,31
429288,312,31
429288,352,31
429304,349,31
429320,322,31
429320,363,31
429344,316,31
429354,328,31
429365,348,31
429370,306,31
429385,350,31
429395,330,31
429404,319,31
429409,357,31
429426,313,31
429436,345,31
429447,345,31
429454,316,31
429467,362,31
429477,326,31
429487,356,31
429497,418,31
429504,469,31
429518,441,31
429521,309,31
429537,303,31
429537,368,31
429559,310,31
429569,348,31
429580,350,31
429587,322,31
429587,368,31
429605,332,31
429620,343,31
429620,371,31
429637,326,31
429651,368,31
429661,356,31
429670,347,31
429683,393,31
429687,355,31
429703,388,31
429713,404,31
429720,380,31
429720,433,31
429737,404,31
429754,399,31
429764,399,31
429771,332,31
429785,355,31
429795,329,31
429805,305,31
429817,345,31
429820,300,31
429836,326,31
429846,334,31
429857,292,31
429867,335,31
429870,304,31
429887,309,31
429898,339,31
429904,297,31
429912,337,31
429928,325,31
429937,306,31
429949,350,31
429955,304,31
429970,330,31
429980,337,31
429987,301,31
429987,348,31
430004,318,31
430020,315,31
430031,350,31
430037,304,31
430052,339,31
430059,332,31
430070,307,31
430070,352,31
430093,310,31
430103,329,31
430112,344,31
430120,306,31
430134,348,31
430144,322,31
430154,322,31
430161,350,31
430171,307,31
430171,348,31
430187,346,31
430204,320,31
430213,358,31
430220,312,31
430236,325,31
430238,344,31
430254,302,31
430267,345,31
430278,320,31
430287,313,31
430298,350,31
430304,303,31
430319,337,31
430329,335,31
430337,306,31
430349,354,31
430355,318,31
430355,347,31
430372,450,31
430388,480,31
430388,433,31
430411,265,31
430421,301,31
430421,343,31
430436,299,31
430452,332,31
430462,334,31
430470,306,31
430470,348,31
430488,315,31
430504,330,31
430513,353,31
430520,312,31
430534,356,31
430545,338,31
430555,331,31
430560,374,31
430570,332,31
430586,370,31
430595,387,31
430604,361,31
430616,410,31
430621,374,31
430637,375,31
430648,379,31
430655,314,31
430668,343,31
430678,321,31
430687,299,31
430698,336,31
430704,290,31
430719,319,31
430720,323,31
430737,290,31
430750,337,31
430760,300,31
430770,310,31
430781,335,31
430787,290,31
430787,333,31
430803,313,31
430820,300,31
430831,343,31
430837,302,31
430837,331,31
430862,338,31
430871,300,31
430883,348,31
430889,317,31
430904,321,31
430914,350,31
430921,300,31
430934,343,31
430945,330,31
430955,312,31
430965,355,31
430971,312,31
430971,332,31
430987,342,31
431004,306,31
431016,352,31
431027,326,31
431037,326,31
431048,358,31
431055,314,31
431059,349,31
431071,342,31
431088,325,31
431088,367,31
431104,328,31
431120,345,31
431121,347,31
431138,308,31
431150,358,31
431155,329,31
431170,326,31
431181,360,31
431188,313,31
431201,350,31
431212,340,31
431221,315,31
431232,364,31
431243,318,31
431253,339,31
431262,356,31
431270,333,31
431270,452,31
431294,515,27
431304,420,27
431314,293,27
431321,298,27
431321,343,27
431336,335,27
431355,312,27
431366,356,27
431370,316,27
431386,333,27
431397,354,27
431404,312,27
431418,360,27
431421,337,27
431437,333,27
431448,375,27
431455,331,27
431469,371,27
431471,374,27
431487,349,27
431499,406,27
431509,375,27
431520,396,27
431530,420,27
431537,370,27
431550,395,27
431561,347,27
431571,322,27
431581,351,27
431587,300,27
431602,327,27
431605,330,27
431620,298,27
431633,347,27
431637,310,27
431653,320,27
431663,343,27
431671,302,27
431671,342,27
431687,321,27
431704,311,27
431713,350,27
431722,308,27
431736,335,27
431745,336,27
431753,305,27
431765,353,27
431770,315,27
431786,323,27
431796,348,27
431804,304,27
431817,345,27
431821,323,27
431836,306,27
431849,353,27
431856,307,27
431863,337,27
431871,342,27
431887,308,27
431900,355,27
431904,319,27
431920,327,27
431930,355,27
431937,306,27
431937,348,27
431961,335,27
431970,315,27
431982,363,27
431992,322,27
432002,347,27
432012,356,27
432021,307,27
432033,348,27
432043,319,27
432053,322,27
432058,354,27
432070,304,27
432084,340,27
432095,333,27
432104,312,27
432115,356,27
432125,313,27
432135,331,27
432137,347,27
432154,311,27
432166,374,27
432176,384,27
432187,471,27
432187,446,27
432204,284,27
432218,320,27
432220,345,27
432237,311,27
432248,360,27
432257,321,27
432260,341,27
432280,356,27
432288,313,27
432300,363,27
432305,337,27
432320,333,27
432330,369,27
432336,330,27
432351,367,27
432362,367,27
432370,351,27
432382,403,27
432387,371,27
432403,394,27
432413,422,27
432421,386,27
432421,423,27
432437,375,27
432453,343,27
432464,360,27
432470,304,27
432484,329,27
432495,324,27
432505,297,27
432512,340,27
432521,303,27
432521,318,27
432538,335,27
432554,291,27
432567,331,27
432571,312,27
432587,303,27
432598,343,27
432604,299,27
432613,336,27
432621,337,27
432637,305,27
432649,355,27
432657,316,27
432670,328,27
432680,349,27
432688,307,27
432700,345,27
432711,324,27
432721,315,27
432731,351,27
432737,309,27
432751,336,27
432761,336,27
432770,305,27
432782,352,27
432787,316,27
432803,324,27
432813,354,27
432820,311,27
432834,351,27
432837,337,27
432854,321,27
432863,366,27
432871,323,27
432885,344,27
432895,343,27
432904,307,27
432915,354,27
432920,323,27
432936,325,27
432946,354,27
432954,310,27
432967,347,27
432971,335,27
432988,318,27
432998,359,27
433003,314,27
433019,337,27
433021,358,27
433037,342,27
433049,481,27
433059,475,27
433070,366,27
433080,306,27
433088,310,27
433101,339,27
433111,332,27
433120,314,27
433132,354,27
433138,313,27
433138,337,27
433162,352,27
433171,316,27
433171,361,27
433193,337,27
433204,337,27
433213,371,27
433220,328,27
433234,371,27
433245,371,27
433253,353,27
433265,407,27
433271,375,27
433271,397,27
433296,408,27
433304,355,27
433313,377,27
433320,329,27
433337,310,27
433348,338,27
433354,290,27
433367,322,27
433378,316,27
433388,288,27
433399,331,27
433407,290,27
433419,308,27
433420,325,27
433437,285,27
433437,331,27
433458,308,27
433470,302,27
433480,342,27
433487,298,27
433487,330,27
433511,329,27
433521,300,27
433521,344,27
433538,307,27
433538,321,27
433563,344,27
433570,302,27
433583,343,27
433588,320,27
433604,311,27
433614,351,27
433621,306,27
433621,337,27
433645,338,27
433653,305,27
433665,355,27
433670,317,27
433686,326,27
433697,346,27
433703,304,27
433717,348,27
433721,326,27
433737,315,27
433747,356,27
433754,310,27
433763,336,27
433778,346,27
433788,318,27
433799,365,27
433804,331,27
433812,331,27
433820,349,27
433838,307,27
433851,351,27
433858,332,27
433871,317,27
433881,358,27
433888,309,27
433901,335,27
433912,342,27
433921,310,27
433921,356,27
433938,324,27
433938,330,27
433963,375,27
433970,380,27
433970,527,25
433987,460,25
434004,288,25
434012,323,25
434020,310,25
434035,328,25
434038,337,25
434054,302,25
434062,350,25
434071,319,25
434087,325,25
434087,351,25
434104,311,25
434117,348,25
434120,338,25
434137,323,25
434147,370,25
434154,334,25
434162,360,25
434178,381,25
434187,353,25
434199,405,25
434204,382,25
434219,387,25
434230,412,25
434238,348,25
434250,364,25
434261,334,25
434271,301,25
434271,341,25
434288,295,25
434302,315,25
434312,327,25
434321,285,25
434333,335,25
434343,308,25
434353,303,25
434363,338,25
434371,293,25
434383,331,25
434388,326,25
434405,299,25
434414,347,25
434420,306,25
434434,324,25
434437,340,25
434454,301,25
434465,347,25
434471,320,25
434471,316,25
434497,352,25
434504,305,25
434518,342,25
434521,336,25
434537,310,25
434538,356,25
434554,316,25
434565,329,25
434571,348,25
434587,306,25
434600,349,25
434605,330,25
434620,321,25
434630,357,25
434637,309,25
434651,344,25
434662,344,25
434671,313,25
434681,359,25
434687,318,25
434703,332,25
434712,352,25
434721,309,25
434733,359,25
434737,338,25
434754,328,25
434764,366,25
434771,307,25
434784,335,25
434795,339,25
434804,307,25
434804,357,25
434820,321,25
434836,323,25
434845,350,25
434854,306,25
434866,349,25
434877,329,25
434887,316,25
434897,354,25
434905,313,25
434918,355,25
434920,425,25
434938,491,25
434948,446,25
434954,261,25
434969,308,25
434972,345,25
434990,296,25
434999,343,25
435010,327,25
435020,310,25
435031,352,25
435037,310,25
435051,341,25
435060,348,25
435070,315,25
435082,365,25
435087,334,25
435102,342,25
435113,375,25
435120,335,25
435133,385,25
435138,379,25
435153,371,25
435164,420,25
435170,374,25
435185,388,25
435195,377,25
435204,317,25
435215,350,25
435221,304,25
435221,301,25
435237,330,25
435254,284,25
435266,323,25
435277,312,25
435287,290,25
435297,332,25
435304,289,25
435318,309,25
435321,326,25
435337,287,25
435349,333,25
435355,304,25
435370,304,25
435380,335,25
435388,289,25
435388,324,25
435404,320,25
435420,297,25
435422,344,25
435438,302,25
435452,320,25
435460,338,25
435470,295,25
435470,341,25
435487,313,25
435503,312,25
435513,349,25
435521,304,25
435534,333,25
435544,331,25
435553,303,25
435564,350,25
435570,314,25
435585,332,25
435595,353,25
435604,308,25
435616,344,25
435621,317,25
435636,311,25
435646,345,25
435654,301,25
