Timestamp,ECGValue,BPM
1375880,341,73
1375888,420,71
1375888,510,71
1375902,502,71
1375919,310,71
1375931,292,71
1375936,357,71
1375952,322,71
1375953,333,71
1375969,348,71
1375983,325,71
1375988,353,71
1376002,342,71
1376013,339,71
1376020,366,71
1376034,340,71
1376036,362,71
1376051,365,71
1376064,354,71
1376069,388,71
1376085,373,71
1376096,388,71
1376103,412,71
1376117,395,71
1376120,430,71
1376136,425,71
1376148,416,71
1376152,423,71
1376168,373,71
1376178,373,71
1376188,360,71
1376199,334,71
1376208,360,71
1376218,338,71
1376229,343,71
1376236,361,71
1376250,335,71
1376260,362,71
1376269,349,71
1376281,340,71
1376290,366,71
1376301,339,71
1376302,357,71
1376318,360,71
1376332,339,71
1376336,367,71
1376352,347,71
1376362,350,71
1376370,365,71
1376383,338,71
1376393,363,71
1376402,354,71
1376402,345,71
1376419,369,71
1376435,341,71
1376445,356,71
1376452,361,71
1376452,338,71
1376469,368,71
1376485,348,71
1376497,348,71
1376501,364,71
1376517,337,71
1376526,358,71
1376535,352,71
1376547,341,71
1376557,366,71
1376568,340,71
1376578,352,71
1376588,357,71
1376588,335,71
1376609,361,71
1376619,340,71
1376628,339,71
1376635,357,71
1376651,331,71
1376660,354,71
1376669,349,71
1376677,335,71
1376689,363,71
1376689,336,71
1376702,347,71
1376719,361,71
1376733,338,71
1376742,366,71
1376752,345,71
1376752,333,71
1376768,352,71
1376784,325,71
1376789,344,71
1376801,342,71
1376814,322,71
1376819,349,71
1376834,324,71
1376845,333,71
1376852,342,71
1376866,318,71
1376875,345,71
1376886,328,71
1376896,325,71
1376903,359,71
1376917,388,71
1376919,527,70
1376935,483,70
1376948,282,70
1376952,316,70
1376968,318,70
1376978,321,70
1376986,332,70
1376990,307,70
1377002,336,70
1377019,322,70
1377028,318,70
1377035,341,70
1377051,314,70
1377061,337,70
1377069,338,70
1377081,321,70
1377090,353,70
1377101,333,70
1377111,347,70
1377118,367,70
1377133,353,70
1377143,385,70
1377152,379,70
1377163,376,70
1377169,400,70
1377184,355,70
1377194,348,70
1377201,331,70
1377215,300,70
1377220,322,70
1377236,293,70
1377246,298,70
1377253,316,70
1377253,285,70
1377269,310,70
1377285,298,70
1377297,289,70
1377302,318,70
1377317,290,70
1377327,306,70
1377335,308,70
1377348,288,70
1377359,317,70
1377369,297,70
1377379,300,70
1377388,314,70
1377400,287,70
1377410,315,70
1377419,306,70
1377419,296,70
1377436,320,70
1377445,294,70
1377453,311,70
1377469,315,70
1377479,292,70
1377491,321,70
1377502,302,70
1377512,308,70
1377518,324,70
1377533,296,70
1377536,323,70
1377552,313,70
1377564,299,70
1377569,328,70
1377584,306,70
1377594,316,70
1377602,325,70
1377614,301,70
1377618,329,70
1377635,313,70
1377643,312,70
1377653,332,70
1377666,300,70
1377677,326,70
1377686,319,70
1377697,305,70
1377707,335,70
1377718,308,70
1377728,323,70
1377736,336,70
1377748,313,70
1377753,341,70
1377768,314,70
1377779,307,70
1377788,331,70
1377791,302,70
1377810,321,70
1377818,318,70
1377830,301,70
1377835,328,70
1377851,303,70
1377861,315,70
1377869,323,70
1377882,300,70
1377892,330,70
1377901,318,70
1377913,330,70
1377919,404,68
1377919,476,68
1377936,423,68
1377952,283,68
1377964,293,68
1377974,339,68
1377984,305,68
1377995,322,68
1378002,331,68
1378015,309,68
1378026,336,68
1378036,323,68
1378046,318,68
1378057,342,68
1378067,316,68
1378077,337,68
1378086,339,68
1378092,326,68
1378101,360,68
1378118,342,68
1378128,356,68
1378136,379,68
1378149,362,68
1378159,395,68
1378169,387,68
1378169,371,68
1378186,377,68
1378200,325,68
1378203,324,68
1378219,312,68
1378229,284,68
1378236,310,68
1378236,285,68
1378252,291,68
1378269,307,68
1378283,276,68
1378293,301,68
1378302,292,68
1378313,284,68
1378323,308,68
1378334,281,68
1378336,302,68
1378353,305,68
1378364,289,68
1378375,318,68
1378384,298,68
1378395,302,68
1378401,321,68
1378416,293,68
1378426,320,68
1378436,306,68
1378447,296,68
1378452,320,68
1378468,293,68
1378477,308,68
1378485,316,68
1378498,291,68
1378502,317,68
1378518,302,68
1378529,303,68
1378535,320,68
1378549,293,68
1378560,318,68
1378569,308,68
1378581,297,68
1378586,324,68
1378601,296,68
1378611,315,68
1378618,321,68
1378631,299,68
1378639,335,68
1378652,318,68
1378652,321,68
1378669,335,68
1378683,298,68
1378693,321,68
1378702,315,68
1378714,303,68
1378724,330,68
1378734,303,68
1378744,316,68
1378752,323,68
1378765,301,68
1378769,332,68
1378785,315,68
1378792,314,68
1378802,336,68
1378816,314,68
1378826,352,68
1378836,410,68
1378839,469,68
1378852,389,68
1378868,257,68
1378878,323,68
1378885,335,68
1378899,307,68
1378902,337,68
1378918,321,68
1378929,322,68
1378936,340,68
1378936,315,68
1378953,339,68
1378970,338,68
1378980,326,68
1378986,355,68
1379001,331,68
1379002,347,68
1379018,367,68
1379032,343,68
1379036,384,68
1379052,377,68
1379062,382,68
1379069,412,68
1379083,382,68
1379093,397,68
1379102,372,68
1379114,330,68
1379119,341,68
1379135,304,68
1379145,305,68
1379152,312,68
1379165,288,68
1379169,316,68
1379185,299,68
1379195,293,68
1379202,317,68
1379217,289,68
1379227,310,68
1379235,309,68
1379247,293,68
1379258,325,68
1379268,301,68
1379278,307,68
1379285,324,68
1379299,300,68
1379309,328,68
1379319,312,68
1379319,307,68
1379336,331,68
1379345,301,68
1379360,322,68
1379369,322,68
1379377,302,68
1379391,333,68
1379401,312,68
1379412,316,68
1379419,332,68
1379432,305,68
1379435,331,68
1379452,322,68
1379452,314,68
1379469,341,68
1379478,317,68
1379493,339,68
1379502,341,68
1379514,319,68
1379519,336,68
1379534,318,68
1379545,322,68
1379552,338,68
1379566,310,68
1379576,336,68
1379586,327,68
1379596,316,68
1379602,341,68
1379617,317,68
1379619,332,68
1379636,336,68
1379645,317,68
1379652,364,68
1379668,373,68
1379678,472,68
1379685,423,68
1379698,295,68
1379710,314,68
1379719,343,68
1379730,317,68
1379740,349,68
1379750,323,68
1379753,335,68
1379768,344,68
1379782,323,68
1379792,351,68
1379802,335,68
1379812,337,68
1379819,357,68
1379819,333,68
1379836,360,68
1379852,362,68
1379864,354,68
1379869,389,68
1379883,374,68
1379894,394,68
1379902,407,68
1379914,388,68
1379924,415,68
1379935,374,68
1379945,351,68
1379952,349,68
1379965,306,68
1379976,323,68
1379985,315,68
1379996,298,68
1380002,328,68
1380002,300,68
1380022,313,68
1380036,322,68
1380048,295,68
1380053,324,68
1380068,310,68
1380079,307,68
1380085,330,68
1380093,303,68
1380102,327,68
1380118,325,68
1380130,310,68
1380136,335,68
1380150,312,68
1380152,320,68
1380169,332,68
1380182,306,68
1380192,335,68
1380202,316,68
1380213,313,68
1380218,336,68
1380233,306,68
1380243,330,68
1380252,326,68
1380263,311,68
1380269,339,68
1380284,318,68
1380295,330,68
1380302,346,68
1380316,322,68
1380325,346,68
1380336,322,68
1380346,316,68
1380352,341,68
1380352,311,68
1380377,332,68
1380385,330,68
1380397,311,68
1380403,342,68
1380403,318,68
1380419,328,68
1380435,339,68
1380435,314,68
1380452,343,68
1380468,339,68
1380479,349,68
1380485,456,68
1380500,466,68
1380511,374,68
1380518,287,68
1380530,319,68
1380541,342,68
1380551,320,68
1380561,328,68
1380569,343,68
1380582,317,68
1380592,345,68
1380602,335,68
1380613,327,68
1380619,355,68
1380633,329,68
1380639,354,68
1380652,354,68
1380664,338,68
1380669,372,68
1380685,359,68
1380694,371,68
1380702,397,68
1380715,378,68
1380726,411,68
1380735,400,68
1380746,377,68
1380752,379,68
1380767,329,68
1380777,330,68
1380785,325,68
1380797,298,68
1380808,326,68
1380817,304,68
1380828,307,68
1380839,325,68
1380849,299,68
1380853,323,68
1380869,313,68
1380879,303,68
1380886,332,68
1380893,305,68
1380910,320,68
1380919,326,68
1380931,305,68
1380936,336,68
1380951,317,68
1380951,320,68
1380968,338,68
1380983,310,68
1380993,332,68
1381001,325,68
1381013,314,68
1381019,340,68
1381019,313,68
1381036,326,68
1381052,335,68
1381065,313,68
1381069,343,68
1381084,324,68
1381095,324,68
1381102,344,68
1381116,314,68
1381119,342,68
1381136,341,68
1381147,327,68
1381151,355,68
1381167,327,68
1381169,327,68
1381186,335,68
1381195,310,68
1381209,338,68
1381219,321,68
1381227,320,68
1381236,342,68
1381236,313,68
1381252,334,68
1381269,329,68
1381280,316,68
1381286,347,68
1381294,322,68
1381311,337,68
1381318,362,68
1381331,430,68
1381336,518,68
1381352,403,68
1381362,267,68
1381368,338,68
1381382,310,68
1381393,332,68
1381402,332,68
1381414,317,68
1381419,344,68
1381434,321,68
1381444,333,68
1381453,347,68
1381453,322,68
1381475,350,68
1381485,338,68
1381496,336,68
1381501,363,68
1381516,339,68
1381526,365,68
1381536,372,68
1381547,363,68
1381552,401,68
1381568,385,68
1381578,392,68
1381586,396,68
1381595,347,68
1381603,352,68
1381619,321,68
1381629,305,68
1381636,326,68
1381650,294,68
1381652,312,68
1381670,312,68
1381679,295,68
1381685,326,68
1381701,302,68
1381711,308,68
1381718,324,68
1381730,298,68
1381742,324,68
1381752,314,68
1381762,305,68
1381769,330,68
1381783,302,68
1381794,322,68
1381802,325,68
1381802,304,68
1381819,334,68
1381834,315,68
1381845,316,68
1381852,332,68
1381865,306,68
1381876,332,68
1381885,320,68
1381896,308,68
1381903,335,68
1381916,308,68
1381919,321,68
1381936,327,68
1381945,307,68
1381952,338,68
1381968,317,68
1381977,320,68
1381985,337,68
1381998,311,68
1382009,335,68
1382019,325,68
1382025,314,68
1382040,346,68
1382050,320,68
1382052,338,68
1382069,343,68
1382080,309,68
1382091,336,68
1382102,318,68
1382111,320,68
1382119,337,68
1382125,309,68
1382135,333,68
1382152,326,68
1382163,313,68
1382169,340,68
1382184,313,68
1382194,330,68
1382202,336,68
1382214,316,68
1382219,360,68
1382234,423,67
1382245,500,67
1382252,455,67
1382252,255,67
1382276,324,67
1382285,325,67
1382297,304,67
1382302,333,67
1382317,309,67
1382327,323,67
1382335,334,67
1382348,310,67
1382358,339,67
1382368,323,67
1382379,324,67
1382386,347,67
1382399,321,67
1382409,347,67
1382418,350,67
1382430,340,67
1382436,374,67
1382436,359,67
1382453,377,67
1382471,394,67
1382481,373,67
1382491,397,67
1382501,362,67
1382512,339,67
1382518,346,67
1382533,305,67
1382536,321,67
1382552,316,67
1382563,299,67
1382569,329,67
1382578,305,67
1382594,313,67
1382602,325,67
1382615,300,67
1382619,328,67
1382635,315,67
1382635,308,67
1382652,330,67
1382652,303,67
1382670,324,67
1382686,321,67
1382697,302,67
1382703,330,67
1382717,307,67
1382726,317,67
1382737,329,67
1382748,303,67
1382758,333,67
1382769,320,67
1382778,314,67
1382785,340,67
1382800,313,67
1382810,331,67
1382819,332,67
1382830,312,67
1382840,341,67
1382851,317,67
1382852,325,67
1382868,337,67
1382881,314,67
1382887,339,67
1382901,327,67
1382903,321,67
1382919,344,67
1382933,317,67
1382943,334,67
1382953,336,67
1382964,318,67
1382969,349,67
1382984,333,67
1382995,340,67
1383002,355,67
1383015,326,67
1383018,340,67
1383035,328,67
1383046,318,67
1383052,341,67
1383067,315,67
1383076,332,67
1383085,333,67
1383096,312,67
1383102,342,67
1383118,323,67
1383128,327,67
1383135,344,67
1383149,317,67
1383152,348,67
1383169,356,67
1383179,446,66
1383185,537,66
1383200,411,66
1383201,268,66
1383219,339,66
1383231,314,66
1383241,338,66
1383251,318,66
1383261,320,66
1383268,339,66
1383282,311,66
1383292,337,66
1383302,332,66
1383312,319,66
1383318,349,66
1383333,324,66
1383336,344,66
1383352,354,66
1383365,335,66
1383369,372,66
1383384,362,66
1383386,371,66
1383404,400,66
1383415,381,66
1383425,407,66
1383434,394,66
1383434,358,66
1383450,363,66
1383467,321,66
1383477,320,66
1383480,321,66
1383496,297,66
1383507,327,66
1383512,309,66
1383528,308,66
1383539,329,66
1383545,300,66
1383560,324,66
1383563,317,66
1383580,304,66
1383588,332,66
1383596,305,66
1383610,319,66
1383613,328,66
1383629,301,66
1383641,331,66
1383646,313,66
1383662,312,66
1383672,335,66
1383679,306,66
1383692,328,66
1383696,325,66
1383712,311,66
1383724,340,66
1383730,314,66
1383744,323,66
1383747,333,66
1383763,309,66
1383774,337,66
1383779,319,66
1383795,316,66
1383805,337,66
1383813,307,66
1383825,331,66
1383835,330,66
1383846,310,66
1383857,336,66
1383863,314,66
1383877,326,66
1383887,336,66
1383897,311,66
1383908,340,66
1383918,326,66
1383928,322,66
1383939,344,66
1383946,324,66
1383959,347,66
1383969,348,66
1383979,326,66
1383981,344,66
1383997,319,66
1384011,330,66
1384021,340,66
1384029,312,66
1384041,340,66
1384046,326,66
1384062,321,66
1384073,342,66
1384079,314,66
1384093,333,66
1384103,335,66
1384113,316,66
1384123,345,66
1384131,339,66
1384144,434,65
1384154,535,65
1384162,425,65
1384175,270,65
1384185,323,65
1384196,318,65
1384206,337,65
1384213,309,65
1384213,330,65
1384230,332,65
1384247,316,65
1384247,346,65
1384267,326,65
1384278,331,65
1384288,350,65
1384297,323,65
1384309,350,65
1384319,343,65
1384329,339,65
1384339,369,65
1384346,349,65
1384360,378,65
1384370,390,65
1384379,379,65
1384391,414,65
1384397,388,65
1384411,371,65
1384421,363,65
1384431,319,65
1384442,331,65
1384452,314,65
1384463,302,65
1384472,328,65
1384479,298,65
1384492,314,65
1384503,318,65
1384513,297,65
1384513,327,65
1384529,307,65
1384544,309,65
1384547,326,65
1384563,299,65
1384575,325,65
1384586,317,65
1384595,305,65
1384607,331,65
1384613,306,65
1384627,320,65
1384635,325,65
1384646,303,65
1384646,331,65
1384663,310,65
1384679,315,65
1384688,333,65
1384698,304,65
1384708,330,65
1384719,322,65
1384729,312,65
1384740,339,65
1384746,311,65
1384761,325,65
1384770,332,65
1384779,309,65
1384784,337,65
1384798,318,65
1384811,320,65
1384812,339,65
1384829,310,65
1384843,335,65
1384847,328,65
1384862,315,65
1384862,342,65
1384879,317,65
1384894,329,65
1384898,340,65
1384914,321,65
1384924,353,65
1384930,333,65
1384938,321,65
1384955,336,65
1384963,311,65
1384975,334,65
1384979,326,65
1384996,310,65
1384999,339,65
1385013,312,65
1385027,325,65
1385037,334,65
1385046,310,65
1385058,337,65
1385062,322,65
1385079,322,65
1385088,360,65
1385099,411,65
1385109,527,65
1385120,443,65
1385129,252,65
1385131,339,65
1385146,320,65
1385160,325,65
1385171,337,65
1385179,311,65
1385192,342,65
1385202,325,65
1385212,323,65
1385221,347,65
1385230,319,65
1385236,340,65
1385246,341,65
1385263,328,65
1385274,361,65
1385279,340,65
1385289,354,65
1385299,376,65
1385313,360,65
1385325,395,65
1385329,390,65
1385345,390,65
1385347,407,65
1385362,361,65
1385376,356,65
1385380,337,65
1385396,308,65
1385407,331,65
1385413,304,65
1385427,313,65
1385434,327,65
1385446,297,65
1385458,328,65
1385463,312,65
1385478,306,65
1385489,328,65
1385499,302,65
1385499,319,65
1385513,320,65
1385530,301,65
1385533,330,65
1385546,305,65
1385546,317,65
1385563,331,65
1385580,304,65
1385592,330,65
1385602,317,65
1385612,310,65
1385613,335,65
1385630,308,65
1385640,326,65
1385646,328,65
1385663,309,65
1385673,338,65
1385680,315,65
1385694,319,65
1385705,337,65
1385712,310,65
1385725,336,65
1385735,324,65
1385745,316,65
1385756,340,65
1385763,312,65
1385777,331,65
1385787,334,65
1385796,312,65
1385798,345,65
1385812,328,65
1385827,336,65
1385835,352,65
1385848,321,65
1385858,335,65
1385869,327,65
1385879,320,65
1385889,345,65
1385899,314,65
1385910,332,65
1385912,333,65
1385929,312,65
1385941,340,65
1385946,320,65
1385961,328,65
1385972,344,65
1385982,314,65
1385992,356,65
1386002,380,65
1386012,477,66
1386023,461,66
1386030,300,66
1386030,297,66
1386054,341,66
1386063,307,66
1386063,339,66
1386079,320,66
1386095,323,66
1386099,343,66
1386112,315,66
1386125,344,66
1386136,337,66
1386136,328,66
1386157,358,66
1386162,332,66
1386177,352,66
1386187,362,66
1386196,345,66
1386208,381,66
1386213,371,66
1386227,381,66
1386230,407,66
1386246,382,66
1386246,404,66
1386269,380,66
1386279,345,66
1386290,349,66
1386300,310,66
1386310,315,66
1386313,318,66
1386329,296,66
1386341,321,66
1386346,301,66
1386355,302,66
1386372,321,66
1386379,293,66
1386393,315,66
1386403,311,66
1386412,297,66
1386423,325,66
1386429,304,66
1386444,317,66
1386454,325,66
1386463,306,66
1386474,334,66
1386485,316,66
1386495,312,66
1386505,335,66
1386513,307,66
1386526,330,66
1386531,323,66
1386546,308,66
1386557,336,66
1386563,309,66
1386563,322,66
1386580,329,66
1386596,305,66
1386608,336,66
1386612,315,66
1386628,314,66
1386638,338,66
1386646,307,66
1386659,334,66
1386662,336,66
1386679,321,66
1386691,347,66
1386700,315,66
1386711,318,66
1386712,334,66
1386729,309,66
1386739,335,66
1386746,320,66
1386762,317,66
1386772,338,66
1386779,309,66
1386793,330,66
1386803,327,66
1386813,314,66
1386824,342,66
1386830,318,66
1386835,344,66
1386846,402,67
1386862,466,67
1386875,410,67
1386885,275,67
1386896,301,67
1386906,344,67
1386912,311,67
1386926,338,67
1386936,337,67
1386946,319,67
1386946,349,67
1386963,328,67
1386963,336,67
1386980,350,67
1386996,329,67
1387008,358,67
1387014,347,67
1387029,348,67
1387039,375,67
1387046,351,67
1387060,381,67
1387071,391,67
1387079,379,67
1387091,417,67
1387101,395,67
1387111,398,67
1387113,392,67
1387129,339,67
1387139,347,67
1387152,320,67
1387162,304,67
1387162,326,67
1387179,296,67
1387188,316,67
1387204,313,67
1387212,295,67
1387223,323,67
1387229,302,67
1387237,306,67
1387255,324,67
1387263,297,67
1387275,325,67
1387285,316,67
1387296,305,67
1387306,334,67
1387313,306,67
1387326,323,67
1387334,324,67
1387346,305,67
1387358,333,67
1387363,312,67
1387378,315,67
1387388,333,67
1387396,304,67
1387400,327,67
1387414,316,67
1387414,313,67
1387440,338,67
1387447,309,67
1387460,330,67
1387470,336,67
1387479,315,67
1387490,352,67
1387501,327,67
1387512,320,67
1387521,337,67
1387529,309,67
1387542,334,67
1387553,322,67
1387563,313,67
1387563,338,67
1387579,309,67
1387594,330,67
1387601,333,67
1387613,313,67
1387624,341,67
1387629,322,67
1387645,336,67
1387655,367,67
1387663,420,68
1387663,473,68
1387680,343,68
1387696,262,68
1387701,348,68
1387713,310,68
1387727,331,68
1387738,340,68
1387747,318,68
1387757,349,68
1387768,329,68
1387778,336,68
1387789,353,68
1387796,328,68
1387809,353,68
1387820,349,68
1387829,343,68
1387839,373,68
1387846,350,68
1387846,371,68
1387871,387,68
1387881,373,68
1387891,409,68
1387901,396,68
1387912,398,68
1387922,400,68
1387929,348,68
1387942,348,68
1387953,326,68
1387963,304,68
1387973,325,68
1387979,300,68
1387994,312,68
1388004,317,68
1388013,291,68
1388025,320,68
1388035,302,68
1388045,305,68
1388056,323,68
1388064,299,68
1388064,321,68
1388080,319,68
1388096,304,68
1388107,330,68
1388113,305,68
1388113,320,68
1388138,329,68
1388146,303,68
1388158,331,68
1388168,313,68
1388178,312,68
1388189,332,68
1388196,304,68
1388210,327,68
1388220,323,68
1388229,313,68
1388241,340,68
1388246,317,68
1388261,334,68
1388271,344,68
1388280,313,68
1388280,334,68
1388301,312,68
1388312,313,68
1388313,333,68
1388330,306,68
1388343,328,68
1388347,325,68
1388362,308,68
1388374,338,68
1388380,313,68
1388389,323,68
1388401,334,68
1388412,311,68
1388425,348,68
1388435,345,68
1388445,415,68
1388456,492,68
1388462,347,68
1388477,278,68
1388484,333,68
1388495,310,68
1388507,339,68
1388513,319,68
1388528,331,68
1388538,341,68
1388546,318,68
1388559,346,68
1388568,336,68
1388579,331,68
1388589,356,68
1388596,332,68
1388610,356,68
1388621,359,68
1388630,347,68
1388640,382,68
1388646,367,68
1388661,388,68
1388671,404,68
1388679,383,68
1388692,411,68
1388702,381,68
1388713,354,68
1388722,355,68
1388729,309,68
1388743,322,68
1388746,316,68
1388762,299,68
1388775,327,68
1388779,302,68
1388795,307,68
1388802,317,68
1388813,291,68
1388813,324,68
1388831,306,68
1388846,305,68
1388856,327,68
1388862,298,68
1388877,320,68
1388887,321,68
1388896,304,68
1388907,333,68
1388913,310,68
1388929,319,68
1388938,330,68
1388945,303,68
1388945,333,68
1388969,319,68
1388979,315,68
1388990,338,68
1388996,311,68
1389010,327,68
1389020,329,68
1389029,316,68
1389034,345,68
1389045,325,68
1389062,328,68
1389072,329,68
1389080,308,68
1389087,334,68
1389103,321,68
1389112,312,68
1389112,339,68
1389130,310,68
1389145,328,68
1389154,331,68
1389163,312,68
1389174,341,68
1389184,320,68
1389195,323,68
1389206,351,68
1389213,351,68
1389213,478,68
1389236,452,68
1389246,329,68
1389246,301,68
1389262,319,68
1389277,330,68
1389287,334,68
1389296,314,68
1389302,346,68
1389318,322,68
1389329,331,68
1389339,346,68
1389346,319,68
1389359,349,68
1389370,340,68
1389380,335,68
1389389,365,68
1389396,343,68
1389411,364,68
1389421,373,68
1389429,364,68
1389442,400,68
1389451,387,68
1389462,397,68
1389472,406,68
1389480,362,68
1389480,364,68
1389502,333,68
1389512,312,68
1389524,327,68
1389530,298,68
1389544,311,68
1389554,317,68
1389562,295,68
1389575,324,68
1389585,300,68
1389595,306,68
1389602,322,68
1389613,297,68
1389613,324,68
1389637,315,68
1389647,308,68
1389657,334,68
1389667,309,68
1389677,322,68
1389687,329,68
1389695,308,68
1389708,336,68
1389719,316,68
1389729,317,68
1389732,334,68
1389746,309,68
1389746,334,68
1389770,326,68
1389780,313,68
1389790,341,68
1389796,313,68
1389811,328,68
1389822,334,68
1389829,314,68
1389841,348,68
1389846,328,68
1389862,332,68
1389873,346,68
1389878,306,68
1389893,335,68
1389903,327,68
1389912,314,68
1389924,341,68
1389934,315,68
1389944,328,68
1389946,333,68
1389963,312,68
1389975,341,68
1389985,321,68
1389996,324,68
1390006,342,68
1390013,318,68
1390027,364,68
1390037,450,68
1390046,490,68
1390057,423,68
1390063,262,68
1390077,325,68
1390088,334,68
1390097,312,68
1390103,342,68
1390119,324,68
1390129,327,68
1390138,347,68
1390145,319,68
1390160,345,68
1390163,339,68
1390179,327,68
1390187,359,68
1390200,337,68
1390211,354,68
1390221,366,68
1390229,344,68
1390241,382,68
1390252,372,68
1390262,382,68
1390273,407,68
1390279,380,68
1390294,391,68
1390304,362,68
1390312,327,68
1390312,341,68
1390329,308,68
1390345,315,68
1390355,322,68
1390363,296,68
1390375,325,68
1390386,306,68
1390396,305,68
1390403,327,68
1390413,300,68
1390427,322,68
1390432,316,68
1390446,301,68
1390458,329,68
1390468,303,68
1390478,314,68
1390489,324,68
1390496,301,68
1390510,329,68
1390519,313,68
1390529,310,68
1390532,333,68
1390546,306,68
1390561,329,68
1390563,325,68
1390579,312,68
1390591,341,68
1390596,311,68
1390611,323,68
1390622,335,68
1390629,311,68
1390643,338,68
1390646,324,68
1390663,321,68
1390663,343,68
1390679,314,68
1390694,338,68
1390704,333,68
1390712,316,68
1390725,351,68
1390729,328,68
1390745,337,68
1390746,348,68
1390762,314,68
1390776,338,68
1390779,325,68
1390796,320,68
1390804,339,68
1390812,309,68
1390827,330,68
1390829,330,68
1390846,314,68
1390858,339,68
1390868,314,68
1390879,325,68
1390885,337,68
1390897,308,68
1390904,351,68
1390912,373,68
1390929,477,69
1390938,492,69
1390947,327,69
1390947,290,69
1390971,331,69
1390979,305,69
1390991,333,69
1391001,311,69
1391012,319,69
1391022,333,69
1391029,308,69
1391043,337,69
1391046,325,69
1391063,323,69
1391063,349,69
1391080,322,69
1391095,347,69
1391104,349,69
1391113,337,69
1391113,372,69
1391135,357,69
1391145,373,69
1391156,394,69
1391162,375,69
1391177,403,69
1391187,375,69
1391197,347,69
1391206,353,69
1391217,310,69
1391227,323,69
1391238,317,69
1391246,297,69
1391258,328,69
1391269,304,69
1391279,313,69
1391290,326,69
1391296,302,69
1391310,329,69
1391320,315,69
1391330,309,69
1391330,333,69
1391345,304,69
1391361,323,69
1391371,323,69
1391379,304,69
1391387,333,69
1391402,313,69
1391412,318,69
1391413,335,69
1391429,307,69
1391440,336,69
1391449,321,69
1391463,312,69
1391474,338,69
1391484,310,69
1391495,330,69
1391505,331,69
1391512,311,69
1391525,340,69
1391536,314,69
1391546,324,69
1391556,337,69
1391563,311,69
1391563,338,69
1391580,328,69
1391597,320,69
1391604,342,69
1391613,315,69
1391629,335,69
1391630,338,69
1391646,318,69
1391659,347,69
1391663,324,69
1391679,330,69
1391687,354,69
1391697,325,69
1391710,356,69
1391713,341,69
1391729,320,69
1391738,346,69
1391747,318,69
1391747,336,69
1391772,337,69
1391779,314,69
1391793,344,69
1391796,322,69
1391812,328,69
1391812,343,69
1391829,314,69
1391843,342,69
1391853,334,69
1391863,326,69
1391874,369,69
1391879,426,68
1391895,529,68
1391904,454,68
1391912,249,68
1391926,337,68
1391929,321,68
1391946,318,68
1391946,336,68
1391963,310,68
1391963,335,68
1391986,327,68
1391996,316,68
1392004,343,68
1392018,315,68
1392028,334,68
1392039,340,68
1392045,321,68
1392059,354,68
1392063,337,68
1392079,348,68
1392090,374,68
1392096,356,68
1392111,394,68
1392121,392,68
1392131,386,68
1392142,405,68
1392147,360,68
1392162,350,68
1392162,337,68
1392179,301,68
1392192,324,68
1392203,301,68
1392213,302,68
1392213,322,68
1392233,296,68
1392244,322,68
1392246,313,68
1392262,302,68
1392275,328,68
1392279,300,68
1392295,317,68
1392306,322,68
1392312,300,68
1392326,330,68
1392335,312,68
1392346,311,68
1392357,329,68
1392363,302,68
1392377,326,68
1392382,320,68
1392395,306,68
1392408,334,68
1392413,307,68
1392413,322,68
1392440,328,68
1392446,303,68
1392460,332,68
1392463,316,68
1392480,317,68
1392486,337,68
1392496,309,68
1392511,335,68
1392515,327,68
1392530,315,68
1392542,342,68
1392547,317,68
1392562,329,68
1392563,337,68
1392581,313,68
1392594,343,68
1392603,324,68
1392613,323,68
1392624,343,68
1392634,315,68
1392644,340,68
1392655,332,68
1392662,322,68
1392675,354,68
1392685,329,68
1392696,343,68
1392705,344,68
1392714,312,68
1392727,343,68
1392729,325,68
1392746,324,68
1392757,341,68
1392763,312,68
1392778,338,68
1392786,333,68
1392796,318,68
1392809,348,68
1392818,322,68
1392829,332,68
1392838,342,68
1392846,330,68
1392859,382,68
1392863,475,68
1392880,508,68
1392889,397,68
1392896,254,68
1392912,346,68
1392913,330,68
1392929,315,68
1392943,343,68
1392946,317,68
1392962,332,68
1392964,340,68
1392981,316,68
1392990,346,68
1393004,332,68
1393013,328,68
1393024,354,68
1393034,329,68
1393045,355,68
1393055,357,68
1393062,349,68
1393075,386,68
1393084,372,68
1393096,392,68
1393106,407,68
1393113,386,68
1393127,405,68
1393137,365,68
1393146,344,68
1393158,346,68
1393163,307,68
1393179,323,68
1393180,316,68
1393196,300,68
1393209,329,68
1393213,303,68
1393230,315,68
1393239,323,68
1393247,297,68
1393260,324,68
1393270,310,68
1393279,308,68
1393291,329,68
1393297,301,68
1393305,322,68
1393322,320,68
1393330,301,68
1393339,330,68
1393353,304,68
1393363,316,68
1393363,327,68
1393380,301,68
1393394,328,68
1393396,314,68
1393413,310,68
1393425,333,68
1393429,305,68
1393445,325,68
1393455,325,68
1393462,307,68
1393475,337,68
1393486,311,68
1393496,321,68
1393507,334,68
1393513,307,68
1393513,336,68
1393537,321,68
1393546,314,68
1393559,337,68
1393568,310,68
1393578,333,68
1393586,332,68
1393595,314,68
1393609,346,68
1393613,323,68
1393630,332,68
1393639,350,68
1393646,325,68
1393661,352,68
1393663,331,68
1393679,317,68
1393692,345,68
1393696,317,68
1393712,336,68
1393713,334,68
1393729,315,68
1393742,344,68
1393746,320,68
1393763,327,68
1393774,340,68
1393780,313,68
1393794,341,68
1393804,328,68
1393812,334,68
1393824,381,68
1393829,464,68
1393846,480,68
1393855,352,68
1393862,266,68
1393876,348,68
1393883,316,68
1393897,325,68
1393907,340,68
1393914,314,68
1393914,343,68
1393938,331,68
1393947,328,68
1393958,352,68
1393963,326,68
1393979,346,68
1393989,350,68
1393996,334,68
1394010,368,68
1394020,348,68
1394029,363,68
1394033,386,68
1394047,367,68
1394061,401,68
1394063,395,68
1394079,388,68
1394089,400,68
1394097,349,68
1394112,345,68
1394123,330,68
1394129,303,68
1394143,328,68
1394145,306,68
1394162,307,68
1394174,324,68
1394180,296,68
1394195,321,68
1394204,310,68
1394212,302,68
1394225,327,68
1394231,302,68
1394246,321,68
1394256,320,68
1394263,303,68
1394276,334,68
1394286,307,68
1394295,316,68
1394307,332,68
1394312,307,68
1394328,333,68
1394338,319,68
1394347,313,68
1394359,338,68
1394369,309,68
1394379,330,68
1394390,330,68
1394396,308,68
1394409,339,68
1394413,316,68
1394430,321,68
1394441,335,68
1394446,310,68
1394462,336,68
1394472,324,68
1394479,315,68
1394492,340,68
1394497,314,68
1394513,328,68
1394523,334,68
1394533,310,68
1394543,347,68
1394546,328,68
1394562,332,68
1394562,348,68
1394580,312,68
1394595,334,68
1394605,322,68
1394612,317,68
1394625,342,68
1394636,310,68
1394646,329,68
1394656,329,68
1394663,310,68
1394677,340,68
1394687,317,68
1394696,321,68
1394707,340,68
1394713,315,68
1394713,354,68
1394739,401,68
1394746,478,68
1394759,410,68
1394769,261,68
1394779,322,68
1394790,337,68
1394796,308,68
1394811,344,68
1394821,321,68
1394829,325,68
1394841,346,68
1394851,318,68
1394862,346,68
1394862,340,68
1394880,332,68
1394889,359,68
1394896,335,68
1394913,356,68
1394923,362,68
1394929,349,68
1394938,387,68
1394955,377,68
1394963,386,68
1394963,411,68
1394979,385,68
1394994,406,68
1394994,376,68
1395010,339,68
1395026,344,68
1395036,302,68
1395047,311,68
1395050,313,68
1395066,288,68
1395077,320,68
1395083,297,68
1395083,300,68
1395107,319,68
1395116,290,68
1395129,315,68
1395133,309,68
1395149,298,68
1395157,327,68
1395167,303,68
1395180,316,68
1395190,324,68
1395200,307,68
1395211,335,68
1395217,314,68
1395232,316,68
1395242,335,68
1395250,304,68
1395250,326,68
1395266,324,68
1395283,309,68
1395290,335,68
1395300,311,68
1395314,324,68
1395324,331,68
1395333,312,68
1395344,342,68
1395350,322,68
1395365,328,68
1395375,350,68
1395383,319,68
1395395,345,68
1395406,332,68
1395416,310,68
1395426,342,68
1395436,314,68
1395447,328,68
1395457,332,68
1395466,308,68
1395478,338,68
1395488,322,68
1395498,321,68
1395509,342,68
1395516,317,68
1395528,339,68
1395539,335,68
1395549,337,68
1395560,403,68
1395566,459,68
1395580,404,68
1395583,301,68
1395600,294,68
1395611,348,68
1395616,323,68
1395631,325,68
1395642,346,68
1395650,315,68
1395662,344,68
1395667,340,68
1395683,327,68
1395693,354,68
1395700,329,68
1395708,346,68
1395717,356,68
1395734,339,68
1395745,372,68
1395749,358,68
1395765,366,68
1395767,397,68
1395783,377,68
1395796,408,68
1395800,406,68
1395817,386,68
1395827,395,68
1395833,342,68
1395847,334,68
1395858,329,68
1395867,299,68
1395878,321,68
1395888,303,68
1395899,299,68
1395909,320,68
1395916,292,68
1395929,316,68
1395940,311,68
1395949,298,68
1395959,322,68
1395967,301,68
1395981,310,68
1395991,322,68
1395999,302,68
1396012,332,68
1396017,313,68
1396033,312,68
1396042,329,68
1396049,303,68
1396062,325,68
1396066,322,68
1396084,303,68
1396094,334,68
1396101,307,68
1396113,319,68
1396124,331,68
1396133,307,68
1396145,337,68
1396156,320,68
1396165,320,68
1396175,346,68
1396183,321,68
1396183,337,68
1396200,326,68
1396217,309,68
1396227,339,68
1396232,312,68
1396248,325,68
1396258,336,68
1396267,308,68
1396278,336,68
1396288,322,68
1396288,320,68
1396309,340,68
1396317,315,68
1396330,336,68
1396333,344,68
1396349,347,68
1396360,460,69
1396366,443,69
1396381,338,69
1396392,290,69
1396400,318,69
1396409,334,69
1396417,324,69
1396433,321,69
1396434,345,69
1396451,321,69
1396463,340,69
1396474,343,69
1396483,327,69
1396494,357,69
1396499,335,69
1396514,347,69
1396516,362,69
1396533,339,69
1396546,373,69
1396551,368,69
1396566,371,69
1396568,403,69
1396583,380,69
1396597,408,69
1396607,404,69
1396616,370,69
1396627,376,69
1396638,329,69
1396648,322,69
1396658,324,69
1396667,296,69
1396679,319,69
1396689,307,69
1396699,301,69
1396709,325,69
1396716,297,69
1396716,317,69
1396741,316,69
1396750,298,69
1396750,328,69
1396767,308,69
1396776,314,69
1396784,331,69
1396800,304,69
1396812,334,69
1396816,320,69
1396832,313,69
1396844,339,69
1396850,311,69
1396850,329,69
1396867,328,69
1396883,310,69
1396883,338,69
1396900,313,69
1396909,323,69
1396926,338,69
1396933,314,69
1396933,343,69
1396956,336,69
1396966,328,69
1396976,348,69
1396984,307,69
1396998,329,69
1397008,332,69
1397016,311,69
1397027,339,69
1397038,317,69
1397048,323,69
1397059,337,69
1397067,308,69
1397067,336,69
1397083,326,69
1397099,318,69
1397110,343,69
1397116,327,69
1397130,379,69
1397141,485,69
1397150,430,69
1397160,345,69
1397171,284,69
1397181,328,69
1397192,338,69
1397200,311,69
1397213,340,69
1397223,326,69
1397233,323,69
1397243,350,69
1397250,324,69
1397264,341,69
1397274,345,69
1397284,327,69
1397295,360,69
1397305,343,69
1397316,353,69
1397325,371,69
1397333,352,69
1397333,390,69
1397349,388,69
1397367,385,69
1397375,413,69
1397383,385,69
1397398,381,69
1397408,359,69
1397417,319,69
1397417,334,69
1397433,305,69
1397449,305,69
1397450,320,69
1397467,292,69
1397480,319,69
1397490,310,69
1397499,302,69
1397511,325,69
1397516,296,69
1397531,315,69
1397541,320,69
1397549,299,69
1397561,327,69
1397566,308,69
1397582,312,69
1397593,328,69
1397600,302,69
1397614,331,69
1397618,319,69
1397633,310,69
1397633,336,69
1397654,307,69
1397664,325,69
1397675,328,69
1397684,307,69
1397684,335,69
1397705,317,69
1397715,321,69
1397726,335,69
1397734,312,69
1397746,339,69
1397749,331,69
1397766,324,69
1397777,344,69
1397783,307,69
1397798,324,69
1397801,329,69
1397816,305,69
1397829,335,69
1397836,316,69
1397849,315,69
1397859,333,69
1397866,306,69
1397880,330,69
1397884,320,69
1397900,314,69
1397910,341,69
1397916,320,69
1397931,354,69
1397941,460,68
1397949,469,68
1397962,399,68
1397966,263,68
1397982,317,68
1397992,332,68
1398000,307,68
1398010,332,68
1398024,325,68
1398034,313,68
1398034,342,68
1398049,317,68
1398065,333,68
1398066,343,68
1398083,321,68
1398095,351,68
1398106,337,68
1398116,342,68
1398126,366,68
1398133,344,68
1398146,377,68
1398150,378,68
1398167,374,68
1398177,406,68
1398187,381,68
1398198,381,68
1398208,365,68
1398217,323,68
1398229,337,68
1398234,309,68
1398250,307,68
1398260,324,68
1398266,295,68
1398280,316,68
1398285,310,68
1398300,299,68
1398311,326,68
1398316,302,68
1398331,315,68
1398342,321,68
1398349,299,68
1398363,328,68
1398372,310,68
1398383,310,68
1398385,328,68
1398399,301,68
1398415,327,68
1398424,319,68
1398433,305,68
1398444,332,68
1398449,308,68
1398465,321,68
1398475,328,68
1398483,305,68
1398495,334,68
1398500,317,68
1398517,316,68
1398527,337,68
1398533,309,68
1398547,332,68
1398558,326,68
1398567,312,68
1398577,339,68
1398584,315,68
1398599,329,68
1398609,337,68
1398616,315,68
1398630,348,68
1398633,333,68
1398649,335,68
1398660,353,68
1398666,316,68
1398681,335,68
1398691,333,68
1398700,315,68
1398712,342,68
1398717,315,68
1398732,327,68
1398741,338,68
1398750,312,68
1398763,340,68
1398773,324,68
1398783,322,68
1398784,344,68
1398800,315,68
1398811,351,68
1398824,393,68
1398833,483,68
1398845,485,68
1398849,315,68
1398865,292,68
1398867,338,68
1398883,306,68
1398896,335,68
1398901,318,68
1398916,316,68
1398927,338,68
1398933,309,68
1398948,334,68
1398958,334,68
1398966,321,68
1398966,349,68
1398983,328,68
1398999,340,68
1399009,354,68
1399017,335,68
1399030,370,68
1399039,363,68
1399050,369,68
1399060,400,68
1399066,375,68
1399081,396,68
1399091,379,68
1399100,341,68
1399112,350,68
1399122,312,68
1399132,315,68
1399143,321,68
1399150,294,68
1399163,322,68
1399167,309,68
1399183,306,68
1399194,328,68
1399200,297,68
1399214,318,68
1399217,315,68
1399233,299,68
1399245,328,68
1399250,303,68
1399257,312,68
1399276,324,68
1399284,299,68
1399284,326,68
1399307,309,68
1399316,304,68
1399325,329,68
1399333,302,68
1399348,322,68
1399350,321,68
1399367,304,68
1399379,333,68
1399389,309,68
1399399,318,68
1399410,330,68
1399416,304,68
1399429,333,68
1399440,320,68
1399449,315,68
1399461,338,68
1399466,311,68
1399482,329,68
1399492,329,68
1399499,312,68
1399512,341,68
1399522,317,68
1399533,324,68
1399544,336,68
1399550,309,68
1399564,336,68
1399574,323,68
1399584,315,68
1399584,340,68
1399600,318,68
1399615,337,68
1399617,342,68
1399633,321,68
1399646,344,68
1399650,315,68
1399666,325,68
1399677,337,68
1399684,310,68
1399684,335,68
1399707,322,68
1399716,315,68
1399728,340,68
1399733,313,68
1399748,329,68
1399759,332,68
1399767,311,68
1399779,339,68
1399787,332,68
1399799,370,68
1399810,497,67
1399816,481,67
1399831,365,67
1399834,276,67
1399850,324,67
1399861,337,67
1399866,309,67
1399881,328,67
1399883,330,67
1399899,311,67
1399913,342,67
1399916,321,67
1399932,328,67
1399943,343,67
1399949,319,67
1399949,346,67
1399966,335,67
1399982,331,67
1399995,362,67
1400005,342,67
1400015,372,67
1400026,385,67
1400033,372,67
1400047,408,67
1400050,387,67
1400067,381,67
1400076,375,67
1400084,328,67
1400097,335,67
1400108,316,67
1400116,303,67
1400128,325,67
1400133,297,67
1400148,316,67
1400150,320,67
1400167,301,67
1400179,330,67
1400190,308,67
1400199,310,67
1400210,326,67
1400216,299,67
1400231,325,67
1400240,313,67
1400250,305,67
1400262,330,67
1400272,302,67
1400282,322,67
1400287,324,67
1400300,304,67
1400312,333,67
1400323,310,67
1400333,316,67
1400333,331,67
1400350,306,67
1400350,331,67
1400367,325,67
1400383,315,67
1400383,340,67
1400400,311,67
1400416,327,67
1400426,331,67
1400433,308,67
1400447,339,67
1400450,319,67
1400467,321,67
1400477,341,67
1400484,314,67
1400484,339,67
1400499,332,67
1400517,319,67
1400526,344,67
1400533,320,67
1400549,336,67
1400551,339,67
1400567,318,67
1400580,349,67
1400583,329,67
1400600,329,67
1400610,349,67
1400617,328,67
1400631,355,67
1400640,349,67
1400650,331,67
1400662,349,67
1400667,325,67
1400683,341,67
1400693,346,67
1400700,323,67
1400713,350,67
1400716,331,67
1400734,333,67
1400744,353,67
1400750,326,67
1400764,348,67
1400774,342,67
1400784,329,67
1400796,368,67
1400800,376,67
1400817,506,67
1400826,519,67
1400833,341,67
1400846,302,67
1400857,339,67
1400867,328,67
1400877,348,67
1400885,320,67
1400899,343,67
1400908,339,67
1400916,326,67
1400929,354,67
1400933,329,67
1400949,344,67
1400960,353,67
1400967,335,67
1400980,366,67
1400991,354,67
1401000,358,67
1401011,383,67
1401017,363,67
1401032,398,67
1401042,401,67
1401050,394,67
1401050,422,67
1401067,385,67
1401083,373,67
1401093,359,67
1401100,319,67
1401114,336,67
1401124,317,67
1401133,314,67
1401144,332,67
1401150,305,67
1401165,325,67
1401176,321,67
1401183,306,67
1401196,334,67
1401200,308,67
1401216,318,67
1401227,326,67
1401233,302,67
1401247,330,67
1401258,314,67
1401266,311,67
1401278,333,67
1401283,306,67
1401283,329,67
1401309,324,67
1401317,310,67
1401330,336,67
1401333,313,67
1401350,325,67
1401360,336,67
1401366,308,67
1401381,338,67
1401391,321,67
1401399,317,67
1401411,340,67
1401417,311,67
1401431,332,67
1401434,328,67
1401449,314,67
1401463,342,67
1401473,318,67
1401484,328,67
1401493,340,67
1401500,315,67
1401514,342,67
1401517,326,67
1401533,322,67
1401545,343,67
1401551,315,67
1401565,335,67
1401575,334,67
1401583,319,67
1401596,351,67
1401607,328,67
1401617,337,67
1401617,341,67
1401633,307,67
1401648,342,67
1401658,326,67
1401666,318,67
1401678,341,67
1401688,311,67
1401699,330,67
1401709,331,67
1401716,315,67
1401730,344,67
1401740,320,67
1401750,325,67
1401760,339,67
1401767,329,67
1401781,407,67
1401791,502,67
1401800,444,67
1401800,308,67
1401822,287,67
1401832,333,67
1401843,328,67
1401850,311,67
1401864,338,67
1401870,315,67
1401883,324,67
1401894,339,67
1401901,309,67
1401914,341,67
1401925,331,67
1401933,327,67
1401939,352,67
1401955,326,67
1401965,350,67
1401976,356,67
1401983,346,67
1401997,385,67
1402001,370,67
1402017,384,67
1402027,403,67
1402033,373,67
1402048,384,67
1402059,349,67
1402067,322,67
1402079,331,67
1402089,297,67
1402099,311,67
1402110,310,67
1402116,293,67
1402130,322,67
1402141,301,67
1402150,308,67
1402150,321,67
1402166,293,67
1402181,321,67
1402184,311,67
1402199,302,67
1402199,328,67
1402222,304,67
1402233,320,67
1402243,323,67
1402250,304,67
1402250,331,67
1402267,312,67
1402283,313,67
1402294,332,67
1402305,304,67
1402315,330,67
1402325,323,67
1402333,309,67
1402345,337,67
1402350,309,67
1402366,328,67
1402377,332,67
1402386,309,67
1402397,335,67
1402400,317,67
1402416,320,67
1402428,337,67
1402433,308,67
1402449,332,67
1402450,324,67
1402466,314,67
1402479,343,67
1402483,313,67
1402499,334,67
1402510,343,67
1402516,323,67
1402525,348,67
1402533,318,67
1402551,320,67
1402551,335,67
1402567,308,67
1402582,334,67
1402592,323,67
1402599,314,67
1402612,338,67
1402623,316,67
1402633,331,67
1402644,333,67
1402650,314,67
1402650,342,67
1402667,329,67
1402683,347,67
1402695,430,67
1402703,472,67
1402715,393,67
1402726,271,67
1402732,313,67
1402746,341,67
1402750,315,67
1402766,333,67
1402777,340,67
1402783,320,67
1402783,348,67
1402799,331,67
1402816,332,67
1402829,355,67
1402833,329,67
1402848,357,67
1402859,352,67
1402866,345,67
1402879,373,67
1402889,351,67
1402899,375,67
1402910,395,67
1402917,378,67
1402931,417,67
1402941,400,67
1402950,389,67
1402962,384,67
1402966,333,67
1402982,340,67
1402992,317,67
1403000,296,67
1403000,321,67
1403023,294,67
1403034,304,67
1403044,313,67
1403050,292,67
1403064,318,67
1403074,302,67
1403084,300,67
1403095,320,67
1403105,294,67
1403116,319,67
1403126,314,67
1403133,304,67
1403146,332,67
1403157,304,67
1403167,318,67
1403167,326,67
1403185,303,67
1403193,331,67
1403207,312,67
1403217,312,67
1403227,334,67
1403239,305,67
1403249,327,67
1403250,326,67
1403267,310,67
1403280,338,67
1403289,312,67
1403300,324,67
1403310,336,67
1403317,313,67
1403317,341,67
1403342,327,67
1403351,327,67
1403362,348,67
1403372,316,67
1403382,329,67
1403393,325,67
1403400,310,67
1403414,339,67
1403417,312,67
1403433,322,67
1403444,332,67
1403450,308,67
1403450,336,67
1403467,321,67
1403482,318,67
1403496,344,67
1403499,316,67
1403516,341,67
1403526,355,67
1403533,395,67
1403540,497,68
1403557,368,68
1403566,274,68
1403577,336,68
1403583,319,68
1403598,340,68
1403608,330,68
1403617,329,68
1403629,353,68
1403640,325,68
1403650,348,68
1403659,346,68
1403666,331,68
1403679,363,68
1403684,339,68
1403699,351,68
1403711,367,68
1403717,348,68
1403725,381,68
1403734,374,68
1403750,380,68
1403762,413,68
1403766,390,68
1403782,413,68
1403782,404,68
1403800,365,68
1403814,366,68
1403817,325,68
1403833,318,68
1403844,323,68
1403850,295,68
1403865,321,68
1403875,309,68
1403883,301,68
1403896,324,68
1403906,296,68
1403916,315,68
1403926,314,68
1403935,297,68
1403935,325,68
1403949,302,68
1403966,313,68
1403976,328,68
1403984,299,68
1403998,328,68
1404000,314,68
1404016,308,68
1404028,334,68
1404033,303,68
1404049,326,68
1404050,325,68
1404067,306,68
1404077,335,68
1404088,312,68
1404100,320,68
1404100,334,68
1404117,309,68
1404131,336,68
1404142,327,68
1404150,319,68
1404162,347,68
1404173,323,68
1404183,341,68
1404193,335,68
1404200,307,68
1404200,338,68
1404225,312,68
1404233,320,68
1404245,335,68
1404255,308,68
1404266,334,68
1404275,325,68
1404282,315,68
1404296,344,68
1404301,315,68
1404316,333,68
1404316,335,68
1404333,329,68
1404343,398,68
1404358,470,68
1404367,402,68
1404378,309,68
1404389,286,68
1404399,340,68
1404409,321,68
1404417,317,68
1404417,342,68
1404433,317,68
1404450,334,68
1404461,337,68
1404467,318,68
1404481,348,68
1404489,332,68
1404500,342,68
1404511,359,68
1404522,335,68
1404533,366,68
1404542,362,68
1404550,360,68
1404550,394,68
1404567,377,68
1404583,402,68
1404594,408,68
1404600,383,68
1404614,390,68
1404624,343,68
1404633,327,68
1404645,332,68
1404655,297,68
1404666,316,68
1404677,306,68
1404683,293,68
1404687,320,68
1404707,293,68
1404717,307,68
1404727,315,68
1404734,292,68
1404734,322,68
1404749,304,68
1404766,307,68
1404775,326,68
1404783,298,68
1404799,324,68
1404810,319,68
1404818,307,68
1404830,332,68
1404839,306,68
1404850,318,68
1404850,325,68
1404868,303,68
1404881,333,68
1404884,311,68
1404900,311,68
1404913,331,68
1404917,305,68
1404933,329,68
1404934,321,68
1404951,312,68
1404963,343,68
1404966,320,68
1404983,333,68
1404994,333,68
1405000,304,68
1405014,332,68
1405025,314,68
1405033,312,68
1405038,332,68
1405050,304,68
1405066,328,68
1405076,323,68
1405084,308,68
1405084,337,68
1405099,312,68
1405117,326,68
1405128,335,68
1405133,324,68
1405149,384,68
1405158,474,68
1405166,440,68
1405179,344,68
1405189,270,68
1405199,332,68
1405209,321,68
1405217,308,68
1405217,339,68
1405234,314,68
1405250,327,68
1405250,340,68
1405267,316,68
1405276,344,68
1405284,330,68
1405299,331,68
1405312,354,68
1405317,332,68
1405332,355,68
1405333,356,68
1405350,347,68
1405364,385,68
1405374,370,68
1405383,390,68
1405395,403,68
1405400,376,68
1405415,386,68
1405425,348,68
1405433,322,68
1405436,331,68
1405449,295,68
1405466,315,68
1405477,312,68
1405483,296,68
1405497,322,68
1405508,301,68
1405517,309,68
1405528,320,68
1405538,295,68
1405548,322,68
1405558,308,68
1405567,302,68
1405567,326,68
1405584,299,68
1405600,321,68
1405610,320,68
1405617,306,68
1405631,335,68
1405641,313,68
1405650,320,68
1405662,334,68
1405667,308,68
1405682,337,68
1405687,323,68
1405701,319,68
1405713,343,68
1405717,313,68
1405733,332,68
1405743,331,68
1405751,315,68
1405764,342,68
1405774,319,68
1405783,326,68
1405795,339,68
1405800,316,68
1405816,347,68
1405817,336,68
1405834,329,68
1405846,350,68
1405850,311,68
1405866,332,68
1405877,334,68
1405882,314,68
1405898,343,68
1405908,320,68
1405918,324,68
1405918,340,68
1405933,312,68
1405949,340,68
1405950,327,68
1405966,321,68
1405979,345,68
1405983,324,68
1406000,357,68
1406000,449,67
1406018,490,67
1406026,434,67
1406033,265,67
1406050,321,67
1406062,335,67
1406067,305,67
1406082,332,67
1406093,323,67
1406101,316,67
1406113,345,67
1406118,318,67
1406133,333,67
1406137,338,67
1406150,323,67
1406164,351,67
1406175,332,67
1406183,342,67
1406195,359,67
1406206,340,67
1406216,376,67
1406227,374,67
1406233,374,67
1406247,407,67
1406257,383,67
1406266,392,67
1406277,374,67
1406287,331,67
1406298,343,67
1406308,313,67
1406318,312,67
1406328,328,67
1406338,301,67
1406350,326,67
1406359,318,67
1406366,307,67
1406379,335,67
1406384,307,67
1406400,323,67
1406402,326,67
1406418,303,67
1406431,331,67
1406442,311,67
1406450,312,67
1406462,330,67
1406467,303,67
1406483,328,67
1406493,320,67
1406500,309,67
1406513,335,67
1406518,309,67
1406533,325,67
1406537,330,67
1406551,309,67
1406565,338,67
1406575,319,67
1406583,321,67
1406583,339,67
1406606,312,67
1406616,335,67
1406627,330,67
1406634,316,67
1406647,343,67
1406657,315,67
1406666,331,67
1406677,343,67
1406687,323,67
1406687,356,67
1406700,338,67
1406718,331,67
1406729,339,67
1406734,315,67
1406750,337,67
1406760,328,67
1406766,316,67
1406780,339,67
1406784,315,67
1406800,329,67
1406800,334,67
1406818,311,67
1406832,340,67
1406842,322,67
1406851,318,67
1406862,351,67
1406867,346,67
1406883,480,67
1406888,496,67
1406899,359,67
1406914,286,67
1406925,320,67
1406934,322,67
1406934,330,67
1406950,307,67
1406965,336,67
1406976,321,67
1406984,319,67
1406984,341,67
1407007,315,67
1407016,337,67
1407026,336,67
1407033,324,67
1407033,355,67
1407050,334,67
1407067,351,67
1407078,367,67
1407083,354,67
1407099,390,67
