Timestamp,ECGValue,BPM
541444,298,72
541454,316,72
541464,320,72
541471,297,72
541485,327,72
541495,307,72
541504,307,72
541504,331,72
541521,299,72
541536,322,72
541544,316,72
541557,298,72
541561,334,72
541577,301,72
541588,312,72
541595,328,72
541608,299,72
541611,332,72
541628,313,72
541637,311,72
541645,333,72
541660,304,72
541669,329,72
541677,326,72
541691,307,72
541695,339,72
541711,310,72
541721,325,72
541727,340,72
541741,307,72
541751,345,72
541761,330,72
541761,328,72
541778,349,72
541788,309,72
541803,327,72
541812,329,72
541812,307,72
541829,338,72
541844,307,72
541844,318,72
541862,333,72
541875,303,72
541885,331,72
541895,321,72
541906,312,72
541911,338,72
541927,309,72
541936,347,72
541944,386,72
541957,450,71
541961,404,71
541977,276,71
541988,297,71
541996,341,71
542009,302,71
542012,338,71
542028,328,71
542039,316,71
542045,350,71
542060,316,71
542071,337,71
542078,340,71
542091,316,71
542100,352,71
542111,333,71
542122,340,71
542131,363,71
542142,341,71
542152,376,71
542161,378,71
542172,374,71
542179,408,71
542193,381,71
542203,397,71
542212,385,71
542224,336,71
542233,351,71
542245,310,71
542255,308,71
542262,321,71
542276,288,71
542286,316,71
542295,307,71
542306,292,71
542312,325,71
542312,293,71
542328,313,71
542345,319,71
542345,292,71
542361,326,71
542378,306,71
542389,306,71
542394,330,71
542408,297,71
542419,327,71
542428,317,71
542439,304,71
542445,335,71
542445,303,71
542470,318,71
542478,329,71
542491,299,71
542501,334,71
542511,314,71
542522,314,71
542528,336,71
542543,306,71
542552,330,71
542561,321,71
542573,309,71
542579,337,71
542594,312,71
542604,327,71
542611,336,71
542624,313,71
542634,346,71
542644,324,71
542656,323,71
542662,337,71
542662,300,71
542686,328,71
542695,327,71
542706,305,71
542716,340,71
542726,312,71
542737,321,71
542744,333,71
542744,303,71
542761,335,71
542778,318,71
542788,315,71
542794,344,71
542809,328,71
542813,368,71
542828,443,71
542840,399,71
542844,332,71
542860,277,71
542871,337,71
542878,340,71
542892,310,71
542901,346,71
542912,330,71
542914,326,71
542928,355,71
542942,324,71
542946,347,71
542961,349,71
542974,330,71
542984,365,71
542994,342,71
542995,357,71
543011,377,71
543025,353,71
543035,393,71
543044,388,71
543055,389,71
543061,421,71
543076,390,71
543085,400,71
543094,375,71
543107,329,71
543112,348,71
543128,313,71
543129,312,71
543145,329,71
543145,300,71
543169,329,71
543178,318,71
543187,303,71
543194,335,71
543210,305,71
543212,326,71
543228,330,71
543238,302,71
543249,337,71
543261,317,71
543272,324,71
543278,342,71
543292,313,71
543302,342,71
543311,330,71
543323,318,71
543328,347,71
543344,317,71
543353,334,71
543361,339,71
543361,315,71
543378,349,71
543394,323,71
543405,328,71
543412,347,71
543425,315,71
543428,343,71
543445,335,71
543456,321,71
543462,354,71
543476,327,71
543487,340,71
543495,349,71
543507,331,71
543518,365,71
543528,349,71
543538,345,71
543545,358,71
543559,324,71
543568,353,71
543579,346,71
543587,328,71
543595,362,71
543610,328,71
543621,346,71
543628,358,71
543641,329,71
543651,363,71
543662,342,71
543672,341,71
543677,372,71
543692,360,71
543695,446,72
543713,507,72
543724,385,72
543729,317,72
543743,327,72
543745,345,72
543762,360,72
543774,334,72
543785,368,72
543795,352,72
543805,350,72
543812,376,72
543826,343,72
543836,368,72
543845,367,72
543845,349,72
543861,383,72
543877,359,72
543887,378,72
543895,395,72
543908,372,72
543918,412,72
543928,402,72
543939,403,72
543945,429,72
543960,390,72
543969,393,72
543978,371,72
543990,331,72
543995,354,72
544011,318,72
544020,322,72
544028,340,72
544041,308,72
544052,340,72
544061,326,72
544073,318,72
544078,342,72
544092,308,72
544103,330,72
544111,330,72
544123,310,72
544128,341,72
544144,315,72
544146,321,72
544161,337,72
544175,308,72
544179,340,72
544195,326,72
544205,318,72
544212,345,72
544212,312,72
544228,329,72
544245,331,72
544257,307,72
544267,340,72
544277,313,72
544287,317,72
544295,336,72
544308,304,72
544318,335,72
544328,322,72
544339,312,72
544345,341,72
544359,307,72
544362,328,72
544379,331,72
544391,310,72
544401,343,72
544411,317,72
544420,330,72
544429,350,72
544441,320,72
544452,347,72
544461,330,72
544461,312,72
544479,345,72
544488,314,72
544495,329,72
544511,332,72
544524,305,72
544529,338,72
544544,315,72
544555,320,72
544561,341,72
544574,308,72
544579,337,72
544595,328,72
544595,330,72
544613,406,73
544626,467,73
544632,418,73
544645,306,73
544656,276,73
544667,342,73
544677,315,73
544688,319,73
544695,342,73
544707,307,73
544719,336,73
544728,332,73
544740,316,73
544745,352,73
544745,323,73
544770,340,73
544778,350,73
544788,323,73
544795,363,73
544811,349,73
544822,356,73
544829,389,73
544837,362,73
544852,396,73
544862,399,73
544873,377,73
544878,399,73
544893,347,73
544904,341,73
544912,340,73
544912,302,73
544928,331,73
544944,310,73
544946,307,73
544961,335,73
544975,297,73
544985,325,73
544995,322,73
545006,303,73
545012,336,73
545026,306,73
545033,317,73
545045,333,73
545049,298,73
545068,333,73
545078,316,73
545088,307,73
545095,337,73
545109,305,73
545111,325,73
545128,326,73
545140,307,73
545145,338,73
545160,312,73
545170,320,73
545178,335,73
545191,306,73
545195,337,73
545211,323,73
545222,313,73
545228,342,73
545237,309,73
545246,330,73
545261,329,73
545273,310,73
545284,341,73
545293,314,73
545303,320,73
545312,336,73
545324,305,73
545335,334,73
545345,321,73
545345,311,73
545362,339,73
545362,309,73
545386,326,73
545395,330,73
545395,306,73
545417,340,73
545427,318,73
545437,324,73
545444,344,73
545458,307,73
545462,328,73
545478,318,73
545489,309,73
545494,335,73
545509,304,73
545519,318,73
545529,325,73
545529,299,73
545544,329,73
545560,308,73
545571,313,73
545578,334,73
545591,302,73
545601,331,73
545611,337,73
545622,398,73
545629,496,72
545633,368,72
545653,249,72
545662,309,72
545673,292,72
545678,323,72
545694,305,72
545704,306,72
545711,331,72
545725,301,72
545735,327,72
545745,322,72
545745,310,72
545762,341,72
545776,312,72
545786,330,72
545794,344,72
545807,323,72
545812,360,72
545827,346,72
545838,354,72
545845,386,72
545858,363,72
545868,393,72
545878,383,72
545889,352,72
545894,357,72
545910,311,72
545919,313,72
545930,315,72
545941,282,72
545945,313,72
545961,296,72
545963,294,72
545980,317,72
545991,286,72
545995,312,72
546011,308,72
546022,292,72
546028,322,72
546043,294,72
546053,306,72
546061,315,72
546074,289,72
546084,322,72
546094,307,72
546096,304,72
546111,328,72
546125,297,72
546128,322,72
546145,321,72
546145,302,72
546161,335,72
546177,310,72
546186,319,72
546195,331,72
546195,303,72
546212,334,72
546222,317,72
546238,313,72
546245,340,72
546259,310,72
546262,332,72
546279,332,72
546289,312,72
546295,342,72
546295,316,72
546319,322,72
546330,338,72
546337,309,72
546345,340,72
546361,326,72
546362,318,72
546379,344,72
546390,315,72
546396,336,72
546411,334,72
546411,316,72
546428,346,72
546438,322,72
546454,327,72
546462,348,72
546475,321,72
546478,348,72
546494,340,72
546505,323,72
546511,344,72
546525,312,72
546532,334,72
546545,338,72
546557,313,72
546562,347,72
546577,324,72
546587,328,72
546596,343,72
546596,315,72
546618,344,72
546628,331,72
546638,324,72
546646,363,72
546659,351,72
546669,468,71
546678,496,71
546690,350,71
546695,285,71
546710,325,71
546720,320,71
546728,344,71
546736,315,71
546745,343,71
546761,330,71
546772,320,71
546779,351,71
546792,323,71
546796,338,71
546811,346,71
546823,327,71
546829,362,71
546838,342,71
546846,349,71
546862,375,71
546874,353,71
546885,388,71
546895,390,71
546906,386,71
546912,418,71
546926,382,71
546936,377,71
546945,364,71
546945,321,71
546962,341,71
546972,312,71
546988,308,71
546995,332,71
546995,298,71
547012,324,71
547028,318,71
547039,300,71
547045,332,71
547045,301,71
547062,314,71
547078,323,71
547088,296,71
547095,331,71
547111,314,71
547121,314,71
547129,337,71
547135,304,71
547152,328,71
547162,323,71
547162,306,71
547180,337,71
547192,308,71
547202,319,71
547212,330,71
547212,300,71
547229,331,71
547244,313,71
547245,311,71
547262,336,71
547275,302,71
547279,326,71
547296,322,71
547296,306,71
547313,340,71
547313,311,71
547336,320,71
547345,335,71
547357,308,71
547362,336,71
547378,317,71
547388,316,71
547395,341,71
547407,312,71
547412,335,71
547428,335,71
547439,317,71
547445,346,71
547445,328,71
547461,334,71
547479,350,71
547490,316,71
547501,335,71
547510,321,71
547522,312,71
547529,339,71
547542,310,71
547546,329,71
547561,331,71
547573,309,71
547579,341,71
547593,318,71
547603,323,71
547612,340,71
547624,313,71
547629,345,71
547644,350,71
547655,384,71
547662,495,70
547676,369,70
547680,284,70
547695,323,70
547706,312,70
547711,339,70
547726,322,70
547737,323,70
547746,346,70
547757,317,70
547762,345,70
547778,337,70
547788,328,70
547795,356,70
547809,329,70
547819,351,70
547828,359,70
547839,340,70
547845,378,70
547860,363,70
547870,374,70
547879,404,70
547891,381,70
547895,413,70
547911,399,70
547912,371,70
547928,377,70
547942,326,70
547945,331,70
547962,327,70
547973,299,70
547978,327,70
547994,306,70
548004,306,70
548011,329,70
548024,297,70
548034,320,70
548045,315,70
548055,298,70
548062,331,70
548062,302,70
548086,318,70
548095,326,70
548106,303,70
548112,337,70
548128,318,70
548129,318,70
548145,338,70
548145,308,70
548162,330,70
548178,326,70
548188,311,70
548195,341,70
548209,312,70
548212,323,70
548229,334,70
548238,308,70
548244,339,70
548260,322,70
548271,320,70
548278,343,70
548292,310,70
548301,330,70
548311,329,70
548322,314,70
548329,347,70
548343,321,70
548353,342,70
548362,352,70
548365,326,70
548379,351,70
548393,325,70
548404,322,70
548411,344,70
548425,317,70
548429,337,70
548445,334,70
548455,314,70
548462,347,70
548476,321,70
548482,331,70
548495,348,70
548495,318,70
548513,353,70
548527,344,70
548537,353,70
548546,443,66
548558,455,66
548568,371,66
548578,291,66
548589,323,66
548596,349,66
548609,325,66
548620,335,66
548628,353,66
548640,325,66
548650,357,66
548661,343,66
548662,339,66
548678,367,66
548691,338,66
548696,361,66
548711,369,66
548722,350,66
548728,389,66
548742,367,66
548746,385,66
548762,410,66
548762,384,66
548779,420,66
548794,413,66
548804,395,66
548811,402,66
548824,348,66
548835,348,66
548845,339,66
548845,312,66
548862,339,66
548862,316,66
548886,320,66
548895,335,66
548895,306,66
548912,333,66
548912,322,66
548938,309,66
548945,334,66
548958,305,66
548969,322,66
548979,328,66
548990,306,66
548995,339,66
549010,318,66
549020,321,66
549029,340,66
549040,309,66
549051,339,66
549061,330,66
549071,317,66
549079,345,66
549092,316,66
549102,333,66
549112,341,66
549123,314,66
549129,345,66
549143,324,66
549146,325,66
549161,348,66
549174,319,66
549178,342,66
549195,336,66
549205,322,66
549212,349,66
549212,324,66
549228,343,66
549245,349,66
549256,324,66
549262,354,66
549276,324,66
549287,324,66
549295,345,66
549307,315,66
549312,337,66
549328,332,66
549338,315,66
549345,345,66
549359,318,66
549363,331,66
549379,344,66
549390,318,66
549395,346,66
549409,349,66
549420,364,66
549428,481,63
549441,433,63
549446,352,63
549461,286,63
549462,318,63
549480,343,63
549492,319,63
549495,333,63
549512,347,63
549523,320,63
549529,355,63
549543,341,63
549553,338,63
549561,362,63
549574,334,63
549581,358,63
549595,359,63
549596,346,63
549612,382,63
549626,362,63
549629,375,63
549645,401,63
549656,379,63
549663,414,63
549677,400,63
549687,385,63
549695,388,63
549708,340,63
549718,346,63
549728,335,63
549739,309,63
549745,340,63
549760,316,63
549769,322,63
549778,337,63
549789,309,63
549795,338,63
549810,324,63
549812,318,63
549828,344,63
549842,316,63
549847,332,63
549862,337,63
549863,314,63
549880,346,63
549893,324,63
549896,327,63
549911,347,63
549923,320,63
549929,348,63
549944,335,63
549945,324,63
549961,353,63
549975,324,63
549979,341,63
549995,343,63
550005,322,63
550012,352,63
550026,330,63
550034,333,63
550045,350,63
550045,318,63
550062,347,63
550069,340,63
550078,327,63
550095,353,63
550108,325,63
550118,342,63
550128,354,63
550139,333,63
550145,362,63
550145,339,63
550170,329,63
550179,348,63
550190,323,63
550196,345,63
550210,337,63
550221,321,63
550229,349,63
550235,323,63
550246,334,63
550262,344,63
550273,318,63
550280,349,63
550293,334,63
550296,336,63
550313,373,63
550324,423,64
550329,506,64
550337,392,64
550354,252,64
550362,343,64
550375,316,64
550385,325,64
550395,338,64
550405,312,64
550411,348,64
550426,330,64
550433,327,64
550445,349,64
550456,320,64
550461,344,64
550477,339,64
550487,324,64
550496,358,64
550509,336,64
550512,356,64
550529,373,64
550539,357,64
550545,395,64
550560,387,64
550570,386,64
550580,405,64
550590,354,64
550600,351,64
550611,332,64
550622,302,64
550629,328,64
550642,298,64
550653,306,64
550662,316,64
550672,292,64
550679,319,64
550693,303,64
550696,298,64
550712,322,64
550712,293,64
550728,312,64
550745,311,64
550754,295,64
550762,325,64
550762,301,64
550779,305,64
550795,322,64
550807,293,64
550812,322,64
550827,308,64
550837,301,64
550845,327,64
550845,297,64
550868,314,64
550877,316,64
550888,296,64
550896,325,64
550908,302,64
550919,310,64
550928,325,64
550940,295,64
550946,325,64
550961,310,64
550970,302,64
550979,329,64
550991,297,64
551001,317,64
551011,321,64
551013,297,64
551030,329,64
551043,305,64
551046,308,64
551062,326,64
551073,301,64
551079,326,64
551088,321,64
551096,313,64
551112,341,64
551124,317,64
551135,326,64
551145,323,64
551156,304,64
551162,335,64
551176,314,64
551185,314,64
551196,334,64
551196,309,64
551212,335,64
551227,328,64
551238,318,64
551246,348,64
551246,320,64
551268,336,64
551279,356,64
551287,350,64
551296,472,64
551309,502,64
551320,381,64
551329,281,64
551339,323,64
551346,346,64
551346,339,64
551362,329,64
551378,362,64
551391,337,64
551396,353,64
551412,362,64
551422,337,64
551429,371,64
551435,357,64
551453,353,64
551462,377,64
551473,350,64
551484,377,64
551495,382,64
551504,372,64
551512,411,64
551525,392,64
551535,409,64
551545,423,64
551556,395,64
551563,398,64
551576,359,64
551586,336,64
551596,347,64
551607,310,64
551617,327,64
551628,323,64
551629,304,64
551645,332,64
551657,309,64
551663,317,64
551679,328,64
551689,304,64
551697,329,64
551710,312,64
551720,310,64
551729,333,64
551736,300,64
551751,322,64
551761,321,64
551772,301,64
551779,330,64
551784,307,64
551802,312,64
551812,325,64
551812,296,64
551829,325,64
551839,312,64
551846,303,64
551863,331,64
551874,302,64
551879,319,64
551895,322,64
551905,300,64
551912,330,64
551912,307,64
551935,312,64
551945,327,64
551945,299,64
551963,323,64
551976,316,64
551987,303,64
551997,328,64
552008,303,64
552018,318,64
552028,327,64
552033,303,64
552047,331,64
552059,317,64
552069,322,64
552079,342,64
552089,308,64
552096,329,64
552096,317,64
552112,306,64
552129,331,64
552138,301,64
552146,317,64
552161,321,64
552163,298,64
552179,327,64
552192,307,64
552197,312,64
552212,332,64
552223,306,64
552228,329,64
552244,342,64
552254,373,64
552262,486,63
552274,371,63
552284,272,63
552295,309,63
552305,300,63
552312,325,63
552312,314,63
552336,312,63
552345,335,63
552357,307,63
552362,332,63
552377,327,63
552387,314,63
552396,346,63
552408,320,63
552418,334,63
552428,348,63
552439,325,63
552446,362,63
552459,356,63
552463,356,63
552480,392,63
552490,368,63
552500,398,63
552510,391,63
552512,357,63
552529,361,63
552541,318,63
552546,314,63
552561,316,63
552572,286,63
552578,314,63
552593,298,63
552597,286,63
552613,314,63
552613,286,63
552629,305,63
552640,306,63
552655,284,63
552663,315,63
552675,292,63
552685,301,63
552695,315,63
552705,286,63
552712,318,63
552726,307,63
552737,299,63
552746,326,63
552756,294,63
552767,312,63
552777,312,63
552788,292,63
552797,323,63
552808,301,63
552812,303,63
552829,322,63
552838,290,63
552845,323,63
552859,312,63
552863,302,63
552878,327,63
552890,298,63
552897,317,63
552910,321,63
552921,301,63
552931,333,63
552941,312,63
552946,317,63
552962,339,63
552972,311,63
552980,341,63
552993,327,63
553003,304,63
553012,332,63
553012,303,63
553028,322,63
553044,324,63
553054,303,63
553062,329,63
553075,311,63
553085,312,63
553096,331,63
553106,301,63
553113,327,63
553127,321,63
553133,316,63
553146,359,63
553157,393,63
553162,448,63
553177,347,63
553188,249,63
553197,335,63
553208,310,63
553212,312,63
553229,334,63
553238,306,63
553246,332,63
553260,327,63
553271,312,63
553279,343,63
553290,319,63
553301,334,63
553311,347,63
553322,323,63
553329,358,63
553342,349,63
553352,353,63
553363,384,63
553363,365,63
553379,399,63
553393,401,63
553397,386,63
553412,409,63
553424,359,63
553434,348,63
553444,343,63
553455,303,63
553462,325,63
553475,307,63
553484,304,63
553496,327,63
553497,295,63
553512,317,63
553526,320,63
553537,299,63
553546,329,63
553546,303,63
553568,312,63
553579,326,63
553588,300,63
553597,330,63
553597,316,63
553612,312,63
553630,335,63
553640,308,63
553646,329,63
553660,331,63
553670,310,63
553678,340,63
553691,316,63
553701,323,63
553712,337,63
553722,308,63
553731,339,63
553731,326,63
553745,317,63
553762,345,63
553773,315,63
553779,334,63
553788,338,63
553797,316,63
553812,349,63
553812,324,63
553835,330,63
553845,352,63
553855,327,63
553862,352,63
553876,344,63
553886,325,63
553895,344,63
553907,319,63
553912,336,63
553927,340,63
553937,317,63
553945,345,63
553958,323,63
553968,326,63
553978,344,63
553989,316,63
553997,344,63
554009,336,63
554012,327,63
554029,373,63
554039,377,63
554045,486,63
554060,427,63
554071,296,63
554079,319,63
554091,327,63
554102,323,63
554112,347,63
554113,320,63
554129,348,63
554142,342,63
554146,328,63
554162,358,63
554174,333,63
554179,346,63
554194,356,63
554204,332,63
554212,365,63
554225,348,63
554234,355,63
554245,382,63
554256,363,63
554262,395,63
554276,398,63
554286,387,63
554296,415,63
554306,375,63
554312,366,63
554328,357,63
554338,318,63
554345,337,63
554358,316,63
554369,312,63
554378,335,63
554381,305,63
554397,326,63
554397,325,63
554420,308,63
554429,338,63
554441,312,63
554446,318,63
554446,331,63
554471,307,63
554479,337,63
554488,326,63
554498,318,63
554512,343,63
554522,314,63
554529,337,63
554543,334,63
554553,316,63
554562,346,63
554574,322,63
554584,331,63
554594,343,63
554604,314,63
554612,341,63
554625,328,63
554631,319,63
554645,345,63
554656,316,63
554662,336,63
554677,338,63
554687,317,63
554695,348,63
554707,322,63
554712,329,63
554712,346,63
554738,320,63
554746,348,63
554746,334,63
554764,328,63
554779,355,63
554789,322,63
554798,347,63
554810,355,63
554821,333,63
554829,363,63
554841,330,63
554846,330,63
554861,348,63
554872,319,63
554879,345,63
554892,334,63
554902,325,63
554912,352,63
554923,324,63
554930,339,63
554944,345,63
554954,320,63
554963,351,63
554963,334,63
554979,352,63
554994,431,64
554998,487,64
555012,427,64
555012,289,64
555036,302,64
555045,346,64
555056,317,64
555062,333,64
555076,342,64
555085,317,64
555095,351,64
555108,329,64
555112,332,64
555128,355,64
555138,328,64
555146,354,64
555146,350,64
555169,340,64
555180,370,64
555188,348,64
555198,366,64
555210,384,64
555220,368,64
555228,406,64
555241,390,64
555251,386,64
555262,394,64
555263,341,64
555279,346,64
555293,331,64
555299,306,64
555312,329,64
555323,302,64
555330,312,64
555344,323,64
555354,298,64
555362,326,64
555375,308,64
555384,304,64
555395,329,64
555406,299,64
555412,321,64
555426,320,64
555431,303,64
555447,334,64
555447,306,64
555462,318,64
555477,333,64
555488,304,64
555495,333,64
555508,319,64
555518,310,64
555529,339,64
555539,309,64
555546,326,64
555559,327,64
555570,306,64
555580,336,64
555591,314,64
555599,319,64
555599,335,64
555621,307,64
555629,336,64
555638,322,64
555646,313,64
555662,340,64
555673,310,64
555679,329,64
555687,332,64
555699,311,64
555712,340,64
555724,316,64
555729,320,64
555745,340,64
555746,309,64
555762,337,64
555775,326,64
555780,318,64
555796,346,64
555800,316,64
555813,333,64
555826,345,64
555837,325,64
555846,354,64
555858,332,64
555867,324,64
555878,339,64
555887,310,64
555896,336,64
555900,327,64
555919,312,64
555929,340,64
555939,312,64
555946,324,64
555946,334,64
555962,310,64
555979,340,64
555991,321,64
556000,321,64
556011,356,64
556013,357,64
556030,491,64
556039,456,64
556045,298,64
556062,295,64
556073,314,64
556078,316,64
556093,328,64
556103,304,64
556112,335,64
556123,318,64
556134,317,64
556144,338,64
556155,311,64
556162,338,64
556175,333,64
556180,320,64
556196,353,64
556206,332,64
556212,346,64
556227,363,64
556237,347,64
556245,385,64
556245,377,64
556268,383,64
556279,405,64
556288,368,64
556295,367,64
556309,344,64
556320,311,64
556329,330,64
556339,297,64
556345,304,64
556360,316,64
556371,289,64
556380,318,64
556391,305,64
556400,294,64
556412,323,64
556421,293,64
556430,313,64
556442,318,64
556453,287,64
556462,329,64
556473,301,64
556479,308,64
556493,325,64
556504,298,64
556512,325,64
556524,314,64
556530,307,64
556545,330,64
556555,302,64
556563,320,64
556563,323,64
556580,303,64
556595,332,64
556606,310,64
556612,315,64
556627,330,64
556637,301,64
556645,327,64
556657,316,64
556668,309,64
556679,333,64
556689,307,64
556696,325,64
556709,329,64
556712,306,64
556729,337,64
556732,316,64
556747,318,64
556760,338,64
556771,308,64
556779,332,64
556786,322,64
556801,311,64
556801,341,64
556813,313,64
556830,327,64
556839,334,64
556853,315,64
556862,340,64
556873,325,64
556879,332,64
556894,353,64
556904,326,64
556912,344,64
556925,327,64
556935,313,64
556945,343,64
556955,315,64
556962,332,64
556976,336,64
556979,312,64
556995,343,64
557007,323,64
557012,324,64
557027,344,64
557037,314,64
557045,340,64
557058,343,64
557069,351,64
557078,478,63
557087,495,63
557096,383,63
557110,268,63
557120,316,63
557129,340,63
557141,322,63
557146,319,63
557161,342,63
557171,315,63
557180,341,63
557192,336,63
557201,322,63
557212,353,63
557221,330,63
557229,342,63
557243,358,63
557253,333,63
557263,366,63
557263,358,63
557280,365,63
557294,397,63
557302,375,63
557313,405,63
557313,404,63
557330,386,63
557345,395,63
557356,348,63
557362,340,63
557377,339,63
557386,304,63
557396,329,63
557407,311,63
557417,306,63
557428,331,63
557438,298,63
557446,319,63
557446,318,63
557463,302,63
557479,330,63
557480,307,63
557496,317,63
557511,329,63
557521,300,63
557528,332,63
557540,318,63
557551,311,63
557561,335,63
557563,307,63
557579,325,63
557593,329,63
557602,305,63
557613,336,63
557613,315,63
557630,320,63
557643,337,63
557646,307,63
557663,337,63
557674,329,63
557684,313,63
557695,339,63
557705,312,63
557713,324,63
557726,331,63
557736,309,63
557746,336,63
557756,315,63
557763,318,63
557777,339,63
557787,311,63
557796,330,63
557802,324,63
557812,314,63
557828,338,63
557838,315,63
557847,334,63
557859,340,63
557862,316,63
557879,336,63
557890,307,63
557896,309,63
557903,328,63
557921,299,63
557929,322,63
557941,316,63
557951,300,63
557962,331,63
557963,303,63
557979,316,63
557992,328,63
557996,301,63
558012,331,63
558012,327,63
558030,350,63
558039,464,63
558046,408,63
558062,315,63
558074,274,63
558079,303,63
558095,324,63
558103,304,63
558113,316,63
558126,328,63
558136,305,63
558146,335,63
558157,320,63
558162,320,63
558177,347,63
558187,318,63
558196,344,63
558208,346,63
558212,335,63
558229,371,63
558231,357,63
558247,373,63
558260,400,63
558262,382,63
558279,421,63
558290,407,63
558296,393,63
558311,397,63
558321,347,63
558329,351,63
558335,342,63
558352,318,63
558362,346,63
558372,322,63
558379,330,63
558392,345,63
558403,318,63
558412,344,63
558424,332,63
558433,323,63
558444,352,63
558454,325,63
558462,341,63
558475,349,63
558481,330,63
558495,359,63
558504,341,63
558514,346,63
558526,363,63
558536,332,63
558546,358,63
558557,344,63
558562,334,63
558578,361,63
558588,335,63
558595,349,63
558604,354,63
558612,331,63
558629,362,63
558639,341,63
558646,344,63
558659,363,63
558670,333,63
558680,361,63
558690,352,63
558697,337,63
558711,370,63
558713,342,63
558730,358,63
558742,365,63
558746,331,63
558762,352,63
558762,337,63
558779,338,63
558793,353,63
558796,324,63
558813,350,63
558813,342,63
558830,325,63
558839,356,63
558855,332,63
558863,345,63
558875,351,63
558886,331,63
558896,377,63
558906,398,63
558912,474,63
558927,398,63
558936,271,63
558945,330,63
558957,341,63
558967,315,63
558978,352,63
558988,324,63
558995,335,63
559009,347,63
559018,320,63
559029,350,63
559039,336,63
559045,334,63
559060,357,63
559070,330,63
559079,355,63
559091,357,63
559101,343,63
559111,382,63
559121,365,63
559129,386,63
559129,405,63
559148,381,63
559162,409,63
559173,379,63
559179,348,63
559194,352,63
559204,308,63
559213,316,63
559224,311,63
559235,290,63
559245,325,63
559254,299,63
559263,306,63
559275,318,63
559286,289,63
559296,316,63
559306,307,63
559312,299,63
559312,326,63
559337,298,63
559345,316,63
559358,318,63
559368,298,63
559378,330,63
559386,305,63
559396,311,63
559405,324,63
559413,298,63
559430,323,63
559440,310,63
559446,304,63
559460,331,63
559470,301,63
559479,318,63
559486,322,63
559497,300,63
559512,335,63
559522,311,63
559529,314,63
559543,339,63
559553,310,63
559562,340,63
559562,323,63
559579,303,63
559594,331,63
559605,302,63
559612,317,63
559625,324,63
559629,297,63
559644,328,63
559645,305,63
559662,307,63
559677,327,63
559679,298,63
559695,327,63
559707,319,63
559713,311,63
559727,355,63
559737,387,63
559746,463,63
559746,365,63
559769,249,63
559779,320,63
559789,308,63
559796,309,63
559810,331,63
559820,302,63
559829,328,63
559840,321,63
559846,310,63
559861,340,63
559871,314,63
559879,328,63
559891,341,63
559902,321,63
559913,354,63
559922,340,63
559932,342,63
559943,372,63
559953,354,63
559962,385,63
559974,388,63
559979,373,63
559995,400,63
560004,358,63
560012,343,63
560025,335,63
560035,299,63
560045,320,63
560056,300,63
560063,294,63
560063,318,63
560080,291,63
560096,310,63
560105,312,63
560113,292,63
560113,321,63
560139,298,63
560145,305,63
560158,320,63
560168,294,63
560179,323,63
560190,312,63
560196,305,63
560209,333,63
560212,301,63
560229,319,63
560240,322,63
560251,302,63
560261,331,63
560272,309,63
560281,313,63
560281,330,63
560302,302,63
560313,327,63
560323,317,63
560330,308,63
560338,335,63
560346,306,63
560363,322,63
560374,328,63
560381,312,63
560395,343,63
560405,324,63
560412,323,63
560425,331,63
560429,304,63
560446,331,63
560456,321,63
560463,308,63
560477,335,63
560488,308,63
560496,325,63
560508,332,63
560512,307,63
560529,338,63
560538,321,63
560546,320,63
560559,356,63
560570,347,63
560579,462,64
560590,427,64
560596,317,64
560610,295,64
560621,309,64
560629,317,64
560641,329,64
560646,307,64
560662,338,64
560663,322,64
560679,324,64
560692,347,64
560702,315,64
560713,340,64
560723,338,64
560729,324,64
560743,353,64
560746,330,64
560763,348,64
560774,367,64
560779,349,64
560795,387,64
560805,378,64
560813,382,64
560813,406,64
560836,366,64
560846,366,64
560857,344,64
560863,314,64
560863,332,64
560888,302,64
560896,309,64
560907,321,64
560918,295,64
560928,324,64
560939,310,64
560946,303,64
560959,329,64
560964,300,64
560979,321,64
560990,320,64
560996,302,64
561010,333,64
561020,313,64
561031,321,64
561041,339,64
561051,309,64
561062,342,64
561063,330,64
561081,321,64
561092,348,64
561096,319,64
561113,340,64
561123,342,64
561134,322,64
561143,353,64
561154,329,64
561163,335,64
561163,353,64
561186,326,64
561196,354,64
561206,345,64
561213,332,64
561213,360,64
561230,333,64
561245,350,64
561257,354,64
561263,338,64
561277,370,64
561288,348,64
561296,346,64
561308,356,64
561319,324,64
561329,350,64
561339,341,64
561346,327,64
561360,354,64
561363,322,64
561379,340,64
561390,345,64
561397,320,64
561407,347,64
561421,328,64
561429,325,64
561438,345,64
561452,332,64
561462,405,65
561473,490,65
561479,399,65
561494,285,65
561503,278,65
561512,318,65
561524,320,65
561534,293,65
561545,320,65
561546,304,65
561563,302,65
561563,324,65
561586,295,65
561596,319,65
561607,314,65
561613,299,65
561627,330,65
561637,304,65
561645,319,65
561657,335,65
561662,314,65
561678,351,65
561689,344,65
561696,348,65
561709,372,65
561712,344,65
561729,351,65
561730,325,65
561745,287,65
561760,302,65
561771,269,65
561779,273,65
561787,285,65
561795,257,65
561811,288,65
561813,276,65
561829,269,65
561842,293,65
561852,267,65
561862,288,65
561872,291,65
561880,274,65
561894,306,65
561904,283,65
561912,293,65
561925,308,65
561930,283,65
561945,313,65
561955,303,65
561962,295,65
561975,321,65
561986,297,65
561996,317,65
562005,319,65
562013,302,65
562013,333,65
562037,315,65
562047,321,65
562047,339,65
562063,312,65
562078,341,65
562080,329,65
562097,320,65
562108,350,65
562114,322,65
562129,340,65
562140,343,65
562146,317,65
562161,349,65
562171,328,65
562180,333,65
562184,350,65
562197,323,65
562212,349,65
562213,340,65
562229,330,65
562243,358,65
562246,328,65
562262,340,65
562274,351,65
562279,332,65
562288,364,65
562305,346,65
562313,341,65
562325,350,65
562329,322,65
562345,347,65
562356,337,65
562362,322,65
562376,351,65
562385,324,65
562396,338,65
562407,346,65
562413,323,65
562413,353,65
562430,332,65
562446,335,65
562459,366,65
562468,356,65
562479,474,64
562487,526,64
562495,395,64
562510,287,64
562513,332,64
562530,340,64
562539,347,64
562546,320,64
562560,354,64
562571,339,64
562579,335,64
562592,358,64
562601,330,64
562612,353,64
562613,352,64
562629,339,64
562643,370,64
562654,348,64
562663,363,64
562663,382,64
562679,360,64
562694,402,64
562704,395,64
562713,396,64
562725,423,64
562729,391,64
562746,393,64
562756,372,64
562762,331,64
562762,352,64
562779,317,64
562796,323,64
562807,335,64
562814,305,64
562828,334,64
562838,318,64
562846,310,64
562859,338,64
562869,309,64
562879,330,64
562889,333,64
562896,313,64
562909,341,64
562920,319,64
562929,324,64
562941,337,64
562946,310,64
562962,338,64
562963,325,64
562980,314,64
562991,339,64
562997,309,64
563012,330,64
563013,332,64
563029,306,64
563036,338,64
563046,316,64
563063,320,64
563063,338,64
563079,311,64
563095,336,64
563097,325,64
563113,312,64
563125,338,64
563136,311,64
563146,327,64
563156,330,64
563163,308,64
563177,339,64
563187,316,64
563196,318,64
563208,338,64
563218,310,64
563228,333,64
563238,325,64
563246,309,64
563259,337,64
563270,309,64
563280,324,64
563280,332,64
563296,304,64
563308,338,64
563315,314,64
563330,321,64
563341,343,64
563347,309,64
563361,340,64
563372,327,64
563380,301,64
563392,332,64
563395,306,64
563413,318,64
563423,320,64
563430,296,64
563443,323,64
563446,309,64
563464,305,64
563474,330,64
563479,297,64
563495,321,64
563504,316,64
563513,309,64
563526,360,64
563536,428,63
563546,473,63
563557,361,63
563564,232,63
563577,326,63
563583,299,63
563596,299,63
563607,327,63
563613,297,63
563613,320,63
563639,318,63
563646,303,63
563646,334,63
563670,309,63
563679,321,63
563690,337,63
563696,310,63
563711,345,63
563721,335,63
563730,334,63
563741,366,63
563747,345,63
563747,376,63
563773,380,63
563779,369,63
563788,397,63
563803,355,63
563813,338,63
563813,337,63
563829,293,63
563844,313,63
563847,297,63
563864,292,63
563864,318,63
563880,287,63
563890,306,63
563906,310,63
563912,288,63
563927,314,63
563934,294,63
563946,302,63
563956,320,63
563967,294,63
563977,320,63
563988,310,63
563996,299,63
564009,328,63
564014,297,63
564029,318,63
564038,323,63
564046,298,63
564059,331,63
564062,310,63
564079,310,63
564091,328,63
564096,299,63
564108,326,63
564113,318,63
564130,307,63
564142,340,63
564146,309,63
564162,325,63
564172,332,63
564179,305,63
564192,336,63
564197,318,63
564213,322,63
564224,344,63
564229,313,63
564245,344,63
564247,338,63
564262,326,63
564275,354,63
564285,318,63
564295,321,63
564306,335,63
564313,309,63
564326,341,63
564337,320,63
564346,319,63
564357,337,63
564363,306,63
564378,333,63
564383,327,63
564396,314,63
564408,347,63
564414,321,63
564430,350,63
564440,393,63
564446,448,63
564460,414,63
564470,294,63
564479,292,63
564490,349,63
564496,310,63
564511,338,63
564522,334,63
564530,319,63
564535,348,63
564552,324,63
564562,336,63
564573,352,63
564580,325,63
564589,355,63
564596,342,63
564613,340,63
564624,371,63
564634,346,63
564645,377,63
564655,386,63
564664,377,63
564664,415,63
564685,394,63
564696,402,63
564706,399,63
564713,348,63
564727,360,63
564737,328,63
564746,310,63
564757,329,63
564763,298,63
564763,318,63
564780,319,63
564796,298,63
564809,329,63
564819,305,63
564829,310,63
564839,324,63
564848,297,63
564860,325,63
564871,314,63
564879,307,63
564891,336,63
564901,306,63
564912,325,63
564922,328,63
564930,306,63
564935,337,63
564946,315,63
564963,317,63
564973,336,63
564980,308,63
564994,335,63
564997,323,63
565012,310,63
565024,340,63
565034,309,63
565045,324,63
565046,331,63
565063,310,63
565076,344,63
565080,327,63
565096,329,63
565096,352,63
565113,318,63
565113,335,63
565132,322,63
565147,314,63
565158,344,63
565168,312,63
565178,329,63
565187,334,63
565198,309,63
565198,341,63
565214,320,63
565230,320,63
565240,339,63
565246,311,63
565260,345,63
565263,354,63
565279,388,63
565291,476,64
565297,338,64
565312,278,64
565322,335,64
565330,312,64
565336,340,64
565347,329,64
565363,327,64
565373,348,64
565380,321,64
565388,345,64
565404,344,64
565413,328,64
565425,358,64
565431,338,64
565446,349,64
565455,367,64
565464,345,64
565476,380,64
565487,371,64
565496,377,64
565507,409,64
565513,387,64
565528,415,64
565530,407,64
565547,368,64
565547,378,64
565564,332,64
565579,331,64
565590,332,64
565597,305,64
565597,332,64
565620,314,64
565630,306,64
565640,332,64
565647,301,64
565647,323,64
565663,323,64
565680,302,64
565692,335,64
565702,309,64
565712,317,64
565722,334,64
565729,306,64
565743,335,64
565753,324,64
565763,314,64
565774,340,64
565782,312,64
565794,327,64
565805,329,64
565813,309,64
565825,340,64
565830,312,64
565846,319,64
565856,336,64
565863,304,64
565877,337,64
565887,325,64
565896,317,64
565896,344,64
565913,317,64
565928,339,64
565938,344,64
565946,322,64
565959,350,64
565968,320,64
565979,324,64
565989,344,64
565996,315,64
566010,341,64
566021,329,64
566030,320,64
566032,348,64
566047,320,64
566061,336,64
566063,343,64
566080,320,64
566092,349,64
566102,343,64
566112,363,64
566122,471,66
566130,414,66
566135,345,66
566154,286,66
566163,315,66
566163,341,66
566179,317,66
566195,334,66
566205,343,66
566213,318,66
566226,352,66
566235,334,66
566246,334,66
566257,356,66
566263,326,66
566277,353,66
566287,349,66
566297,337,66
566308,370,66
566313,354,66
566329,375,66
566338,391,66
566347,376,66
566358,411,66
566369,392,66
566379,380,66
566380,382,66
566396,331,66
566411,340,66
566413,327,66
566429,306,66
566441,333,66
566446,307,66
566461,318,66
566463,330,66
566479,303,66
566493,331,66
566503,314,66
566512,310,66
566524,335,66
566530,304,66
566543,327,66
566547,325,66
566564,308,66
566575,338,66
566579,312,66
566589,324,66
566597,335,66
566613,305,66
566626,337,66
566636,320,66
566647,316,66
566657,342,66
566663,311,66
566663,332,66
566681,332,66
566697,314,66
566697,345,66
566713,318,66
566713,326,66
566739,338,66
566746,314,66
566759,340,66
566770,325,66
566780,324,66
566787,350,66
566796,324,66
566811,345,66
566814,339,66
566829,311,66
566842,346,66
566852,321,66
566862,325,66
566872,340,66
566882,313,66
566893,342,66
566903,328,66
566914,322,66
566924,345,66
566930,319,66
566930,338,66
566946,342,66
566963,335,66
566975,411,67
566979,478,67
566996,413,67
566997,312,67
567014,288,67
567026,344,67
567030,328,67
567046,320,67
567058,347,67
567063,320,67
567063,338,67
567088,345,67
567096,322,67
567096,353,67
567113,332,67
567129,336,67
567139,358,67
567146,331,67
567146,362,67
567170,360,67
567180,353,67
567191,387,67
567197,367,67
567197,394,67
567222,403,67
567230,377,67
567238,394,67
567248,351,67
567262,332,67
567263,340,67
567280,302,67
567293,321,67
567297,313,67
567313,298,67
567324,329,67
567330,300,67
567345,312,67
567354,318,67
567363,293,67
567375,321,67
567384,304,67
567396,301,67
567406,323,67
567414,292,67
567427,315,67
567430,312,67
567446,296,67
567451,324,67
567463,299,67
567463,313,67
567488,320,67
567497,294,67
567497,324,67
567520,305,67
567529,302,67
567539,325,67
567546,296,67
567560,317,67
567570,314,67
567580,296,67
567585,325,67
567596,300,67
567612,310,67
567622,319,67
567630,294,67
567642,322,67
567647,306,67
567663,303,67
567673,334,67
567679,303,67
567693,329,67
567697,327,67
567714,297,67
567725,323,67
567729,301,67
567745,309,67
567755,323,67
567763,293,67
567763,323,67
567780,309,67
567796,304,67
567807,329,67
567814,299,67
567828,320,67
567836,325,67
567847,306,67
567847,358,67
567862,388,67
567878,485,66
567889,418,66
567896,242,66
567896,306,66
567920,312,66
567930,302,66
567938,330,66
567947,300,66
567947,322,66
567971,326,66
567980,307,66
567991,336,66
568002,315,66
568012,324,66
568023,344,66
568030,318,66
568043,347,66
568053,339,66
568064,339,66
568074,370,66
568081,354,66
568094,381,66
568097,391,66
568115,375,66
568115,402,66
568130,364,66
568139,349,66
568147,345,66
568163,302,66
568177,324,66
568180,309,66
568196,295,66
568197,325,66
568214,297,66
568227,315,66
568238,321,66
568247,298,66
568247,330,66
568263,311,66
568279,311,66
568289,333,66
568296,304,66
568309,328,66
568314,322,66
568330,310,66
568340,337,66
568347,312,66
568347,328,66
568363,338,66
568380,312,66
568389,344,66
568396,328,66
568412,333,66
568423,355,66
568430,325,66
568443,351,66
568453,346,66
568463,334,66
568474,365,66
568483,338,66
568494,351,66
568504,361,66
568514,336,66
568514,369,66
568531,351,66
568546,352,66
568557,373,66
568564,345,66
568564,370,66
568587,365,66
568596,349,66
568607,380,66
568614,354,66
568627,365,66
568638,376,66
568646,354,66
568658,388,66
568669,376,66
568679,373,66
568690,393,66
568696,350,66
568696,375,66
568721,373,66
568730,353,66
568740,382,66
568747,356,66
568761,364,66
568771,378,66
568780,352,66
568792,378,66
568797,367,66
568813,362,66
568815,386,66
568830,365,66
568843,404,66
568847,495,66
568864,532,66
568864,442,66
568880,283,66
568894,362,66
568901,373,66
568915,342,66
568925,374,66
568930,361,66
568946,356,66
568956,383,66
568963,351,66
568963,372,66
568987,372,66
568996,353,66
569008,388,66
569015,365,66
569028,372,66
569038,394,66
569047,371,66
569058,405,66
569069,402,66
569080,401,66
569090,436,66
569096,411,66
569110,422,66
569120,404,66
569130,357,66
569141,368,66
569147,331,66
569162,325,66
569163,336,66
569180,306,66
569192,332,66
569197,320,66
569213,309,66
569215,335,66
569231,304,66
569244,319,66
569254,326,66
569263,302,66
569274,331,66
569285,308,66
569295,312,66
569305,331,66
569313,302,66
569326,328,66
569332,316,66
569347,303,66
569357,332,66
569364,299,66
569377,315,66
569387,324,66
569396,298,66
569408,326,66
569416,306,66
569416,307,66
569430,327,66
569448,296,66
569448,321,66
569463,313,66
569479,295,66
569490,322,66
569497,297,66
569497,308,66
569521,315,66
569529,293,66
569541,322,66
569552,303,66
569562,299,66
569573,322,66
569580,293,66
569585,316,66
569597,311,66
569613,295,66
569624,325,66
569630,299,66
569644,308,66
569654,316,66
569663,297,66
569675,328,66
569680,313,66
569696,303,66
569705,315,66
569716,286,66
569716,311,66
569737,307,66
569747,289,66
569747,318,66
569763,290,66
569778,301,66
569781,311,66
569797,284,66
569797,316,66
569816,297,66
569816,293,66
569839,324,66
569847,309,66
569847,406,64
569864,464,64
569880,337,64
569891,252,64
569896,285,64
569911,294,64
569921,308,64
569929,283,64
569942,316,64
569948,302,64
569948,293,64
569963,322,64
569980,292,64
569989,317,64
570003,316,64
570013,304,64
570016,336,64
570032,315,64
570045,326,64
570054,348,64
570063,327,64
570075,363,64
570086,362,64
570096,361,64
570107,393,64
570116,357,64
570116,360,64
570136,336,64
570147,296,64
570157,315,64
570163,282,64
570178,284,64
570188,301,64
570197,272,64
570197,300,64
570216,288,64
570216,281,64
570239,306,64
570248,278,64
570248,297,64
570263,301,64
570280,276,64
570289,308,64
570297,286,64
570311,294,64
570322,312,64
570330,281,64
570339,310,64
570347,299,64
570362,291,64
570372,315,64
570379,288,64
570393,307,64
570397,311,64
570413,286,64
570425,320,64
570435,300,64
570445,303,64
570455,320,64
570463,293,64
570476,321,64
570486,310,64
570496,298,64
570506,330,64
570513,300,64
570527,314,64
570537,322,64
570547,298,64
570558,331,64
570563,313,64
570579,310,64
570580,337,64
570596,306,64
570608,332,64
570617,325,64
570629,308,64
570640,333,64
570647,302,64
570647,317,64
570671,323,64
570680,297,64
570691,329,64
570697,310,64
570712,310,64
570717,330,64
570731,303,64
570743,327,64
570748,319,64
570763,304,64
570763,355,64
570780,351,64
570794,449,64
570805,399,64
570814,279,64
570824,304,64
570830,322,64
570845,309,64
570848,336,64
570865,307,64
570877,328,64
570880,327,64
570896,310,64
570907,341,64
570913,320,64
570917,329,64
570938,342,64
570947,319,64
570958,353,64
570963,341,64
570963,342,64
570979,376,64
570998,354,64
571009,387,64
571017,394,64
571030,379,64
571040,412,64
571047,370,64
571061,357,64
571072,352,64
571080,306,64
571092,326,64
571097,308,64
571113,294,64
571122,323,64
571130,292,64
571143,310,64
571147,312,64
571163,290,64
571174,324,64
571180,300,64
571185,309,64
571197,328,64
571213,299,64
571218,327,64
571231,317,64
571245,311,64
571250,336,64
571263,308,64
571276,326,64
571287,328,64
571297,309,64
571298,339,64
571318,317,64
571328,321,64
571338,340,64
571347,312,64
571358,339,64
571363,324,64
571379,315,64
571389,343,64
571397,312,64
571410,333,64
571419,341,64
571429,320,64
571441,347,64
571447,331,64
571453,334,64
571471,353,64
571481,323,64
571489,340,64
571497,327,64
571512,319,64
571523,348,64
571530,318,64
571543,331,64
571554,339,64
571563,312,64
571574,344,64
571580,320,64
571595,321,64
571605,345,64
571613,314,64
571625,344,64
571631,359,64
571647,383,64
571656,492,65
571663,374,65
571663,298,65
571688,319,65
571697,311,65
571707,339,65
571713,321,65
571728,323,65
571739,345,65
571747,317,65
571759,345,65
571763,338,65
571780,326,65
571790,357,65
571797,333,65
571797,348,65
571821,359,65
571829,336,65
571841,376,65
571847,361,65
571847,369,65
571872,402,65
571882,380,65
571889,404,65
571903,398,65
571912,367,65
571923,372,65
571931,323,65
571943,324,65
571954,325,65
571963,295,65
571975,322,65
571982,304,65
571996,303,65
571997,324,65
572014,290,65
572025,315,65
572036,312,65
572046,296,65
572057,326,65
572064,297,65
572077,308,65
572087,324,65
572096,297,65
572108,329,65
572114,310,65
572128,304,65
572130,333,65
572146,301,65
572159,321,65
572164,321,65
572180,306,65
572190,335,65
572196,310,65
572211,315,65
572221,328,65
572230,300,65
572233,329,65
572247,316,65
572262,309,65
572263,336,65
572280,307,65
572293,327,65
572303,330,65
572313,311,65
572323,340,65
572330,318,65
572344,327,65
572347,344,65
572363,313,65
572374,336,65
572385,318,65
572396,309,65
572406,337,65
572414,306,65
572419,327,65
572431,328,65
572447,307,65
572457,338,65
572464,314,65
572464,320,65
572488,337,65
572497,310,65
572508,338,65
572513,347,65
572528,376,65
572539,495,66
572547,386,66
572559,304,66
572563,311,66
572580,308,66
572590,340,66
572597,323,66
572611,327,66
572621,347,66
572631,317,66
572642,345,66
572646,334,66
572663,325,66
572673,355,66
572682,329,66
572693,348,66
572696,357,66
572714,338,66
