Timestamp,ECGValue,BPM
1122539,351,74
1122549,369,74
1122551,384,74
1122568,369,74
1122580,396,74
1122584,377,74
1122601,359,74
1122611,350,74
1122620,306,74
1122631,312,74
1122642,300,74
1122650,282,74
1122662,306,74
1122667,285,74
1122683,297,74
1122687,302,74
1122700,281,74
1122714,308,74
1122718,292,74
1122734,292,74
1122745,309,74
1122751,284,74
1122765,304,74
1122767,299,74
1122784,287,74
1122796,311,74
1122805,290,74
1122817,301,74
1122827,312,74
1122834,286,74
1122847,310,74
1122857,298,74
1122867,295,74
1122867,313,74
1122884,290,74
1122899,310,74
1122906,308,74
1122917,293,74
1122929,320,74
1122934,302,74
1122934,309,74
1122961,320,74
1122967,299,74
1122980,327,74
1122984,319,74
1123000,316,74
1123006,337,74
1123018,306,74
1123027,317,74
1123042,317,74
1123050,301,74
1123063,327,74
1123073,307,74
1123083,312,74
1123084,325,74
1123100,300,74
1123115,326,74
1123117,319,74
1123134,317,74
1123134,339,74
1123155,312,74
1123165,344,74
1123176,375,74
1123184,464,74
1123197,453,74
1123206,303,74
1123217,285,74
1123227,345,74
1123235,310,74
1123247,335,74
1123250,326,74
1123268,318,74
1123278,341,74
1123288,322,74
1123299,335,74
1123309,340,74
1123317,324,74
1123330,353,74
1123340,337,74
1123350,344,74
1123362,362,74
1123367,347,74
1123380,376,74
1123391,374,74
1123400,374,74
1123411,403,74
1123417,382,74
1123432,390,74
1123437,371,74
1123451,323,74
1123451,334,74
1123468,304,74
1123484,299,74
1123484,311,74
1123501,287,74
1123515,308,74
1123524,300,74
1123534,288,74
1123546,313,74
1123555,289,74
1123566,299,74
1123567,307,74
1123585,285,74
1123594,313,74
1123607,295,74
1123617,301,74
1123628,319,74
1123633,293,74
1123648,313,74
1123658,308,74
1123667,296,74
1123678,321,74
1123684,296,74
1123699,308,74
1123707,318,74
1123717,297,74
1123730,322,74
1123740,307,74
1123751,307,74
1123761,326,74
1123767,301,74
1123781,323,74
1123787,321,74
1123801,314,74
1123812,340,74
1123823,317,74
1123833,321,74
1123843,318,74
1123850,302,74
1123864,325,74
1123874,310,74
1123884,305,74
1123894,326,74
1123900,302,74
1123915,320,74
1123926,321,74
1123933,305,74
1123946,331,74
1123955,308,74
1123966,322,74
1123977,344,74
1123983,365,74
1123997,481,74
1124007,384,74
1124018,264,74
1124018,322,74
1124035,314,74
1124048,322,74
1124059,328,74
1124068,312,74
1124075,337,74
1124084,317,74
1124100,328,74
1124107,338,74
1124117,320,74
1124127,347,74
1124134,339,74
1124151,339,74
1124161,366,74
1124167,345,74
1124182,369,74
1124192,377,74
1124201,373,74
1124207,404,74
1124223,391,74
1124232,399,74
1124235,398,74
1124250,346,74
1124264,348,74
1124274,319,74
1124284,300,74
1124284,317,74
1124300,292,74
1124315,307,74
1124324,306,74
1124335,288,74
1124335,315,74
1124356,294,74
1124367,300,74
1124377,314,74
1124385,291,74
1124385,317,74
1124408,309,74
1124418,304,74
1124428,326,74
1124434,303,74
1124448,317,74
1124459,318,74
1124467,300,74
1124467,324,74
1124490,306,74
1124500,310,74
1124511,324,74
1124517,299,74
1124531,322,74
1124542,316,74
1124551,307,74
1124561,334,74
1124567,310,74
1124582,327,74
1124592,336,74
1124600,317,74
1124612,340,74
1124617,318,74
1124633,312,74
1124644,333,74
1124651,306,74
1124664,328,74
1124674,322,74
1124683,311,74
1124683,334,74
1124699,314,74
1124716,325,74
1124723,332,74
1124736,311,74
1124746,335,74
1124756,322,74
1124767,334,74
1124773,377,74
1124788,459,74
1124797,449,74
1124808,315,74
1124818,279,74
1124828,350,74
1124838,314,74
1124840,330,74
1124856,340,74
1124870,320,74
1124879,346,74
1124889,331,74
1124900,331,74
1124908,351,74
1124921,331,74
1124932,353,74
1124940,352,74
1124940,342,74
1124956,374,74
1124972,359,74
1124982,374,74
1124989,396,74
1124989,381,74
1125008,413,74
1125023,403,74
1125033,390,74
1125039,382,74
1125055,333,74
1125065,335,74
1125073,322,74
1125085,300,74
1125095,326,74
1125105,299,74
1125108,306,74
1125123,315,74
1125136,295,74
1125140,316,74
1125157,305,74
1125167,300,74
1125173,322,74
1125188,297,74
1125189,316,74
1125208,317,74
1125219,301,74
1125229,327,74
1125240,304,74
1125240,314,74
1125255,324,74
1125269,302,74
1125273,328,74
1125289,318,74
1125301,313,74
1125311,333,74
1125322,309,74
1125331,322,74
1125340,324,74
1125351,305,74
1125362,330,74
1125373,314,74
1125382,319,74
1125389,335,74
1125389,311,74
1125408,335,74
1125423,333,74
1125433,326,74
1125440,350,74
1125440,324,74
1125465,328,74
1125473,332,74
1125485,314,74
1125490,340,74
1125506,320,74
1125516,323,74
1125523,339,74
1125538,313,74
1125547,335,74
1125556,328,74
1125567,318,74
1125577,341,74
1125588,317,74
1125590,338,74
1125609,357,74
1125609,444,74
1125623,499,74
1125639,368,74
1125650,265,74
1125657,337,74
1125670,306,74
1125681,330,74
1125689,324,74
1125701,314,74
1125709,339,74
1125722,319,74
1125729,334,74
1125740,341,74
1125752,322,74
1125756,350,74
1125772,338,74
1125783,342,74
1125789,364,74
1125803,346,74
1125809,374,74
1125823,377,74
1125835,376,74
1125845,405,74
1125855,387,74
1125865,397,74
1125872,386,74
1125886,340,74
1125890,347,74
1125906,317,74
1125917,305,74
1125925,320,74
1125937,295,74
1125947,311,74
1125956,308,74
1125968,299,74
1125976,322,74
1125989,300,74
1125990,314,74
1126006,319,74
1126010,299,74
1126030,326,74
1126039,310,74
1126040,307,74
1126056,326,74
1126072,303,74
1126081,325,74
1126089,321,74
1126101,310,74
1126112,334,74
1126122,313,74
1126129,322,74
1126139,332,74
1126153,313,74
1126156,337,74
1126173,323,74
1126181,321,74
1126189,340,74
1126204,316,74
1126210,334,74
1126223,334,74
1126234,316,74
1126245,343,74
1126256,321,74
1126266,329,74
1126273,341,74
1126287,324,74
1126289,352,74
1126306,341,74
1126317,335,74
1126327,348,74
1126337,319,74
1126347,338,74
1126355,339,74
1126368,322,74
1126379,344,74
1126389,323,74
1126390,331,74
1126407,344,74
1126410,324,74
1126430,346,74
1126440,334,74
1126450,328,74
1126456,350,74
1126471,337,74
1126482,401,73
1126489,524,73
1126502,475,73
1126513,334,73
1126522,297,73
1126532,339,73
1126539,342,73
1126553,318,73
1126556,342,73
1126572,333,73
1126585,324,73
1126589,347,73
1126589,324,73
1126610,340,73
1126623,343,73
1126633,329,73
1126641,357,73
1126641,343,73
1126666,352,73
1126673,371,73
1126683,355,73
1126690,389,73
1126706,393,73
1126711,392,73
1126724,421,73
1126732,391,73
1126748,379,73
1126756,359,73
1126769,322,73
1126779,335,73
1126789,312,73
1126800,310,73
1126806,324,73
1126820,299,73
1126829,320,73
1126840,314,73
1126851,303,73
1126861,325,73
1126872,306,73
1126876,314,73
1126890,321,73
1126890,302,73
1126910,325,73
1126923,309,73
1126933,308,73
1126939,327,73
1126954,304,73
1126956,324,73
1126973,320,73
1126984,309,73
1126990,333,73
1127004,309,73
1127015,320,73
1127022,330,73
1127028,309,73
1127040,333,73
1127056,316,73
1127067,317,73
1127073,337,73
1127087,311,73
1127090,331,73
1127105,328,73
1127118,314,73
1127122,336,73
1127138,317,73
1127140,324,73
1127156,332,73
1127170,313,73
1127173,340,73
1127189,323,73
1127190,323,73
1127206,346,73
1127219,324,73
1127223,342,73
1127239,337,73
1127252,311,73
1127261,341,73
1127272,319,73
1127282,326,73
1127289,335,73
1127303,311,73
1127313,334,73
1127323,324,73
1127325,321,73
1127339,341,73
1127339,316,73
1127364,335,73
1127372,335,73
1127385,326,73
1127395,374,73
1127406,466,72
1127415,505,72
1127423,389,72
1127427,251,72
1127446,343,72
1127457,325,72
1127466,317,72
1127477,340,72
1127487,315,72
1127497,331,72
1127506,333,72
1127518,318,72
1127528,343,72
1127538,327,72
1127548,332,72
1127556,348,72
1127570,327,72
1127580,356,72
1127589,352,72
1127601,353,72
1127606,387,72
1127620,371,72
1127630,396,72
1127639,406,72
1127651,388,72
1127657,396,72
1127672,353,72
1127683,331,72
1127690,331,72
1127690,298,72
1127711,316,72
1127723,304,72
1127734,297,72
1127739,320,72
1127754,297,72
1127756,311,72
1127773,313,72
1127782,297,72
1127789,322,72
1127805,304,72
1127816,305,72
1127823,321,72
1127836,297,72
1127847,318,72
1127856,314,72
1127867,302,72
1127877,326,72
1127887,304,72
1127889,316,72
1127906,323,72
1127911,303,72
1127929,328,72
1127939,311,72
1127949,312,72
1127956,331,72
1127956,308,72
1127973,327,72
1127989,324,72
1128001,312,72
1128007,336,72
1128021,314,72
1128032,325,72
1128040,331,72
1128052,312,72
1128056,334,72
1128072,321,72
1128083,320,72
1128090,337,72
1128102,316,72
1128111,337,72
1128123,340,72
1128134,327,72
1128139,350,72
1128155,324,72
1128165,323,72
1128173,334,72
1128182,312,72
1128190,335,72
1128206,323,72
1128216,320,72
1128226,336,72
1128236,313,72
1128247,331,72
1128256,331,72
1128267,316,72
1128273,341,72
1128287,320,72
1128292,337,72
1128304,375,72
1128319,472,71
1128326,502,71
1128339,347,71
1128343,263,71
1128360,346,71
1128370,310,71
1128376,329,71
1128385,331,71
1128401,315,71
1128410,342,71
1128412,323,71
1128427,332,71
1128442,343,71
1128453,323,71
1128461,349,71
1128472,341,71
1128483,337,71
1128493,363,71
1128504,344,71
1128512,369,71
1128524,382,71
1128534,373,71
1128543,406,71
1128555,394,71
1128565,393,71
1128576,389,71
1128577,339,71
1128592,340,71
1128607,315,71
1128616,301,71
1128626,319,71
1128637,291,71
1128643,306,71
1128643,308,71
1128660,292,71
1128676,317,71
1128689,300,71
1128699,303,71
1128709,315,71
1128712,293,71
1128726,317,71
1128740,309,71
1128743,304,71
1128760,327,71
1128770,304,71
1128777,317,71
1128791,322,71
1128793,303,71
1128810,327,71
1128822,308,71
1128832,313,71
1128832,330,71
1128853,307,71
1128860,330,71
1128873,322,71
1128876,312,71
1128893,335,71
1128904,313,71
1128912,325,71
1128925,331,71
1128935,311,71
1128943,337,71
1128956,319,71
1128960,322,71
1128975,341,71
1128987,317,71
1128993,335,71
1129007,331,71
1129017,321,71
1129027,350,71
1129033,332,71
1129047,340,71
1129058,342,71
1129060,315,71
1129076,341,71
1129089,328,71
1129099,324,71
1129109,345,71
1129120,316,71
1129126,334,71
1129140,331,71
1129143,320,71
1129160,346,71
1129170,324,71
1129181,334,71
1129192,343,71
1129193,334,71
1129209,393,71
1129222,490,70
1129233,448,70
1129242,330,70
1129254,283,70
1129260,342,70
1129274,332,70
1129281,322,70
1129293,347,70
1129295,327,70
1129313,335,70
1129313,345,70
1129327,325,70
1129343,351,70
1129356,342,70
1129360,340,70
1129376,361,70
1129386,340,70
1129393,363,70
1129407,366,70
1129418,357,70
1129426,392,70
1129438,381,70
1129443,395,70
1129458,412,70
1129460,384,70
1129476,386,70
1129490,351,70
1129493,323,70
1129509,331,70
1129519,301,70
1129527,313,70
1129540,314,70
1129542,298,70
1129560,321,70
1129572,303,70
1129577,306,70
1129591,317,70
1129602,298,70
1129610,319,70
1129613,314,70
1129627,305,70
1129643,327,70
1129653,305,70
1129659,321,70
1129674,326,70
1129684,307,70
1129693,333,70
1129705,314,70
1129715,318,70
1129726,334,70
1129735,307,70
1129743,329,70
1129756,321,70
1129760,312,70
1129776,335,70
1129787,313,70
1129793,323,70
1129793,332,70
1129814,313,70
1129827,338,70
1129838,321,70
1129848,322,70
1129858,340,70
1129869,315,70
1129877,337,70
1129890,336,70
1129900,328,70
1129909,352,70
1129920,324,70
1129930,326,70
1129941,332,70
1129943,315,70
1129960,338,70
1129960,321,70
1129977,321,70
1129986,337,70
1130003,313,70
1130010,333,70
1130023,327,70
1130032,316,70
1130043,338,70
1130054,320,70
1130060,343,70
1130060,372,70
1130085,454,69
1130094,451,69
1130105,316,69
1130114,283,69
1130114,347,69
1130136,312,69
1130143,337,69
1130157,334,69
1130160,322,69
1130176,347,69
1130188,327,69
1130194,336,69
1130208,349,69
1130218,330,69
1130227,359,69
1130239,347,69
1130249,345,69
1130259,372,69
1130269,352,69
1130277,378,69
1130290,390,69
1130293,381,69
1130310,411,69
1130315,398,69
1130327,399,69
1130342,390,69
1130343,339,69
1130360,344,69
1130360,320,69
1130377,307,69
1130393,323,69
1130403,297,69
1130410,316,69
1130423,316,69
1130434,299,69
1130443,323,69
1130454,305,69
1130459,308,69
1130475,318,69
1130484,297,69
1130494,322,69
1130494,313,69
1130514,307,69
1130526,328,69
1130536,306,69
1130543,322,69
1130557,321,69
1130567,305,69
1130577,328,69
1130587,309,69
1130594,314,69
1130608,328,69
1130614,306,69
1130627,327,69
1130637,318,69
1130644,310,69
1130659,334,69
1130669,309,69
1130677,327,69
1130690,329,69
1130700,314,69
1130710,343,69
1130721,327,69
1130730,332,69
1130742,341,69
1130752,308,69
1130760,331,69
1130760,324,69
1130783,312,69
1130792,334,69
1130798,312,69
1130810,326,69
1130815,331,69
1130834,314,69
1130843,339,69
1130854,320,69
1130860,324,69
1130860,343,69
1130884,327,69
1130894,371,69
1130894,462,70
1130916,440,70
1130926,341,70
1130936,275,70
1130943,335,70
1130957,332,70
1130968,317,70
1130976,340,70
1130988,328,70
1130993,329,70
1131009,348,70
1131019,325,70
1131026,346,70
1131039,345,70
1131044,336,70
1131059,361,70
1131070,343,70
1131076,357,70
1131091,371,70
1131101,359,70
1131109,393,70
1131122,385,70
1131127,391,70
1131142,416,70
1131152,387,70
1131160,387,70
1131160,358,70
1131177,322,70
1131193,334,70
1131204,307,70
1131211,312,70
1131224,318,70
1131226,299,70
1131243,321,70
1131254,306,70
1131265,304,70
1131275,322,70
1131281,297,70
1131293,316,70
1131293,313,70
1131316,302,70
1131327,329,70
1131337,307,70
1131343,316,70
1131343,327,70
1131360,305,70
1131376,327,70
1131388,317,70
1131394,311,70
1131394,331,70
1131420,305,70
1131427,322,70
1131440,320,70
1131443,306,70
1131459,331,70
1131470,312,70
1131476,319,70
1131491,331,70
1131501,308,70
1131509,332,70
1131522,325,70
1131530,324,70
1131542,346,70
1131553,320,70
1131560,332,70
1131560,328,70
1131577,314,70
1131594,339,70
1131594,320,70
1131610,325,70
1131624,337,70
1131635,314,70
1131643,337,70
1131655,326,70
1131666,320,70
1131675,342,70
1131685,316,70
1131694,336,70
1131694,348,70
1131717,406,70
1131726,516,70
1131735,409,70
1131743,272,70
1131743,330,70
1131760,315,70
1131777,336,70
1131789,328,70
1131794,323,70
1131809,348,70
1131819,324,70
1131826,339,70
1131840,342,70
1131844,328,70
1131860,354,70
1131871,339,70
1131877,345,70
1131891,361,70
1131893,344,70
1131912,372,70
1131922,373,70
1131933,375,70
1131943,404,70
1131953,388,70
1131960,403,70
1131974,396,70
1131984,349,70
1131994,353,70
1132004,321,70
1132015,313,70
1132024,325,70
1132035,299,70
1132043,319,70
1132056,311,70
1132060,301,70
1132076,324,70
1132086,299,70
1132093,312,70
1132108,318,70
1132116,300,70
1132128,325,70
1132128,309,70
1132148,313,70
1132158,331,70
1132160,309,70
1132177,330,70
1132186,324,70
1132194,313,70
1132210,335,70
1132220,313,70
1132226,324,70
1132240,329,70
1132243,310,70
1132259,334,70
1132271,321,70
1132277,320,70
1132285,335,70
1132294,312,70
1132309,332,70
1132323,328,70
1132327,316,70
1132342,340,70
1132353,322,70
1132360,335,70
1132373,345,70
1132383,320,70
1132393,334,70
1132393,321,70
1132410,320,70
1132426,338,70
1132435,312,70
1132444,330,70
1132444,326,70
1132466,313,70
1132476,337,70
1132486,317,70
1132493,326,70
1132507,333,70
1132518,310,70
1132527,343,70
1132532,345,70
1132543,450,70
1132558,508,70
1132560,371,70
1132576,269,70
1132589,332,70
1132593,309,70
1132609,330,70
1132621,310,70
1132627,320,70
1132641,335,70
1132644,314,70
1132660,339,70
1132672,328,70
1132677,327,70
1132692,347,70
1132702,324,70
1132710,344,70
1132722,349,70
1132732,340,70
1132743,371,70
1132744,362,70
1132760,379,70
1132760,397,70
1132777,380,70
1132793,403,70
1132793,372,70
1132815,341,70
1132826,343,70
1132835,304,70
1132842,316,70
1132856,310,70
1132860,293,70
1132876,318,70
1132886,300,70
1132893,306,70
1132893,317,70
1132918,297,70
1132926,320,70
1132935,307,70
1132949,302,70
1132959,323,70
1132969,298,70
1132976,315,70
1132989,315,70
1132994,300,70
1133010,324,70
1133021,305,70
1133027,310,70
1133041,324,70
1133051,301,70
1133059,324,70
1133072,315,70
1133077,310,70
1133093,331,70
1133103,307,70
1133110,323,70
1133123,325,70
1133134,310,70
1133143,334,70
1133154,316,70
1133160,321,70
1133174,335,70
1133181,310,70
1133193,339,70
1133205,332,70
1133216,329,70
1133226,350,70
1133235,316,70
1133243,327,70
1133256,332,70
1133267,315,70
1133276,337,70
1133288,319,70
1133293,319,70
1133308,335,70
1133318,310,70
1133328,333,70
1133328,323,70
1133349,316,70
1133360,339,70
1133370,315,70
1133377,341,70
1133390,419,69
1133400,510,69
1133410,460,69
1133421,261,69
1133430,310,69
1133441,342,69
1133451,310,69
1133460,334,69
1133472,328,69
1133478,321,69
1133493,343,69
1133493,321,69
1133510,335,69
1133518,342,69
1133526,326,69
1133543,353,69
1133554,338,69
1133560,344,69
1133575,366,69
1133584,351,69
1133593,380,69
1133606,383,69
1133616,381,69
1133626,411,69
1133637,395,69
1133643,396,69
1133643,377,69
1133668,332,69
1133676,339,69
1133688,313,69
1133694,306,69
1133708,319,69
1133709,295,69
1133726,315,69
1133739,310,69
1133749,300,69
1133760,323,69
1133770,301,69
1133780,311,69
1133780,316,69
1133793,297,69
1133810,323,69
1133822,310,69
1133827,310,69
1133842,326,69
1133844,301,69
1133859,322,69
1133859,320,69
1133883,306,69
1133893,331,69
1133904,312,69
1133910,320,69
1133919,327,69
1133927,306,69
1133944,330,69
1133955,317,69
1133965,315,69
1133976,333,69
1133985,309,69
1133993,332,69
1133993,328,69
1134010,316,69
1134027,342,69
1134037,327,69
1134044,337,69
1134057,347,69
1134068,318,69
1134077,336,69
1134087,324,69
1134099,321,69
1134108,339,69
1134119,315,69
1134127,332,69
1134130,330,69
1134144,314,69
1134160,338,69
1134170,321,69
1134177,328,69
1134191,339,69
1134201,319,69
1134209,355,69
1134221,399,69
1134227,511,69
1134242,474,69
1134242,271,69
1134258,310,69
1134258,340,69
1134283,315,69
1134288,342,69
1134304,321,69
1134314,329,69
1134323,345,69
1134335,324,69
1134342,349,69
1134355,341,69
1134365,334,69
1134376,358,69
1134386,338,69
1134388,360,69
1134405,364,69
1134417,357,69
1134427,390,69
1134437,381,69
1134448,393,69
1134455,413,69
1134468,392,69
1134478,406,69
1134488,373,69
1134498,340,69
1134506,344,69
1134506,310,69
1134522,316,69
1134539,316,69
1134551,300,69
1134556,323,69
1134556,305,69
1134581,310,69
1134588,325,69
1134601,302,69
1134605,325,69
1134622,317,69
1134631,307,69
1134638,328,69
1134653,308,69
1134655,322,69
1134673,325,69
1134684,308,69
1134694,335,69
1134705,314,69
1134715,317,69
1134722,334,69
1134726,311,69
1134738,331,69
1134755,324,69
1134766,310,69
1134772,336,69
1134781,313,69
1134797,324,69
1134805,331,69
1134805,313,69
1134822,339,69
1134838,324,69
1134848,323,69
1134855,346,69
1134868,328,69
1134879,347,69
1134888,336,69
1134899,317,69
1134909,342,69
1134920,320,69
1134922,329,69
1134938,335,69
1134951,315,69
1134955,338,69
1134971,327,69
1134980,326,69
1134988,343,69
1135002,321,69
1135007,341,69
1135022,335,69
1135033,333,69
1135039,376,69
1135053,455,70
1135055,474,70
1135072,351,70
1135081,261,70
1135089,346,70
1135105,320,70
1135115,323,70
1135122,343,70
1135131,320,70
1135146,340,70
1135156,335,70
1135166,328,70
1135171,349,70
1135187,331,70
1135198,344,70
1135205,354,70
1135205,338,70
1135228,366,70
1135238,358,70
1135248,363,70
1135255,391,70
1135255,378,70
1135280,402,70
1135288,406,70
1135300,387,70
1135305,391,70
1135321,343,70
1135330,333,70
1135339,328,70
1135339,301,70
1135361,319,70
1135372,305,70
1135380,304,70
1135388,325,70
1135402,297,70
1135413,312,70
1135423,316,70
1135428,298,70
1135439,325,70
1135454,306,70
1135456,312,70
1135472,324,70
1135484,305,70
1135495,329,70
1135505,316,70
1135515,307,70
1135523,329,70
1135527,306,70
1135539,319,70
1135555,324,70
1135555,305,70
1135571,330,70
1135587,310,70
1135589,316,70
1135605,329,70
1135605,305,70
1135623,328,70
1135638,322,70
1135638,320,70
1135655,344,70
1135669,322,70
1135680,334,70
1135689,326,70
1135699,312,70
1135710,336,70
1135720,314,70
1135731,319,70
1135738,332,70
1135752,307,70
1135756,333,70
1135772,324,70
1135782,316,70
1135787,338,70
1135803,317,70
1135808,331,70
1135823,345,70
1135833,346,70
1135844,448,71
1135854,446,71
1135855,323,71
1135871,287,71
1135885,324,71
1135888,332,71
1135905,329,71
1135916,319,71
1135923,343,71
1135928,320,71
1135938,335,71
1135955,342,71
1135967,322,71
1135977,352,71
1135987,335,71
1135997,342,71
1136005,359,71
1136018,340,71
1136027,368,71
1136038,368,71
1136049,368,71
1136055,401,71
1136055,384,71
1136072,400,71
1136087,401,71
1136101,363,71
1136105,360,71
1136121,322,71
1136132,311,71
1136139,320,71
1136152,292,71
1136162,311,71
1136171,301,71
1136183,292,71
1136188,315,71
1136203,290,71
1136213,301,71
1136223,311,71
1136233,291,71
1136239,316,71
1136254,305,71
1136265,306,71
1136271,323,71
1136285,302,71
1136295,318,71
1136304,316,71
1136317,305,71
1136323,328,71
1136323,307,71
1136339,317,71
1136355,324,71
1136367,299,71
1136371,323,71
1136388,313,71
1136388,311,71
1136406,328,71
1136406,308,71
1136423,331,71
1136439,332,71
1136449,317,71
1136455,335,71
1136469,305,71
1136479,320,71
1136488,326,71
1136501,305,71
1136511,330,71
1136521,314,71
1136531,313,71
1136538,331,71
1136552,307,71
1136556,328,71
1136572,326,71
1136583,313,71
1136588,339,71
1136603,331,71
1136604,379,71
1136623,495,72
1136635,395,72
1136644,293,72
1136655,303,72
1136664,318,72
1136671,334,72
1136685,315,72
1136695,332,72
1136705,332,72
1136716,321,72
1136724,349,72
1136737,328,72
1136747,340,72
1136755,353,72
1136768,333,72
1136778,361,72
1136789,355,72
1136789,354,72
1136804,379,72
1136819,362,72
1136823,388,72
1136838,398,72
1136840,389,72
1136860,415,72
1136870,385,72
1136880,364,72
1136889,350,72
1136889,310,72
1136911,322,72
1136921,307,72
1136932,300,72
1136938,322,72
1136938,297,72
1136955,314,72
1136971,311,72
1136983,294,72
1136988,320,72
1137004,300,72
1137006,304,72
1137023,321,72
1137034,299,72
1137038,323,72
1137054,313,72
1137065,309,72
1137071,331,72
1137086,308,72
1137089,323,72
1137105,326,72
1137105,309,72
1137124,334,72
1137138,315,72
1137138,319,72
1137155,333,72
1137169,309,72
1137172,332,72
1137188,326,72
1137199,317,72
1137204,337,72
1137219,317,72
1137225,336,72
1137238,340,72
1137250,323,72
1137260,343,72
1137271,319,72
1137281,324,72
1137289,337,72
1137289,313,72
1137312,334,72
1137322,326,72
1137332,318,72
1137338,342,72
1137353,315,72
1137363,330,72
1137371,337,72
1137383,316,72
1137393,340,72
1137404,336,72
1137414,372,72
1137424,498,73
1137435,441,73
1137445,336,73
1137454,297,73
1137465,322,73
1137476,336,73
1137486,315,73
1137497,328,73
1137505,335,73
1137505,318,73
1137524,344,73
1137538,327,73
1137548,331,73
1137555,347,73
1137568,327,73
1137577,349,73
1137588,347,73
1137599,341,73
1137605,370,73
1137620,354,73
1137625,376,73
1137638,392,73
1137648,378,73
1137655,408,73
1137671,384,73
1137681,363,73
1137688,354,73
1137702,314,73
1137712,323,73
1137721,313,73
1137733,299,73
1137738,322,73
1137753,301,73
1137763,312,73
1137772,318,73
1137783,298,73
1137794,321,73
1137805,305,73
1137806,305,73
1137825,323,73
1137836,300,73
1137845,321,73
1137855,317,73
1137866,304,73
1137872,329,73
1137887,308,73
1137897,315,73
1137905,325,73
1137917,303,73
1137927,330,73
1137938,316,73
1137948,312,73
1137955,331,73
1137969,309,73
1137979,326,73
1137989,326,73
1137999,313,73
1138006,334,73
1138020,315,73
1138030,325,73
1138039,341,73
1138051,320,73
1138056,346,73
1138071,331,73
1138081,315,73
1138088,336,73
1138102,314,73
1138113,328,73
1138122,327,73
1138125,314,73
1138138,338,73
1138155,318,73
1138164,327,73
1138172,338,73
1138185,316,73
1138188,337,73
1138204,326,73
1138215,328,73
1138225,365,73
1138230,448,73
1138239,508,73
1138256,391,73
1138267,256,73
1138277,341,73
1138288,314,73
1138296,324,73
1138305,336,73
1138317,314,73
1138328,337,73
1138338,328,73
1138349,324,73
1138355,347,73
1138355,325,73
1138372,344,73
1138388,348,73
1138400,334,73
1138405,362,73
1138421,349,73
1138431,363,73
1138439,387,73
1138439,372,73
1138462,402,73
1138471,399,73
1138483,390,73
1138488,391,73
1138488,342,73
1138513,337,73
1138521,327,73
1138533,300,73
1138539,322,73
1138554,303,73
1138565,306,73
1138572,318,73
1138585,297,73
1138588,320,73
1138605,311,73
1138605,301,73
1138626,326,73
1138635,301,73
1138646,317,73
1138655,321,73
1138667,301,73
1138672,324,73
1138688,310,73
1138697,311,73
1138704,328,73
1138718,304,73
1138726,327,73
1138739,317,73
1138749,308,73
1138754,332,73
1138769,310,73
1138780,322,73
1138789,330,73
1138789,310,73
1138811,335,73
1138821,319,73
1138831,323,73
1138839,337,73
1138839,313,73
1138862,335,73
1138871,328,73
1138883,318,73
1138888,340,73
1138903,324,73
1138905,340,73
1138921,348,73
1138934,325,73
1138944,339,73
1138954,323,73
1138965,324,73
1138972,339,73
1138984,313,73
1138988,334,73
1139004,329,73
1139016,316,73
1139026,339,73
1139030,318,73
1139039,332,73
1139054,337,73
1139067,320,73
1139075,342,73
1139087,341,73
1139088,416,73
1139107,532,73
1139118,426,73
1139128,275,73
1139139,321,73
1139150,319,73
1139155,338,73
1139170,320,73
1139179,330,73
1139188,339,73
1139188,318,73
1139211,343,73
1139221,330,73
1139231,329,73
1139238,353,73
1139253,332,73
1139262,352,73
1139272,353,73
1139283,345,73
1139289,379,73
1139289,366,73
1139314,387,73
1139322,405,73
1139335,392,73
1139344,414,73
1139355,392,73
1139365,364,73
1139372,360,73
1139386,320,73
1139396,327,73
1139404,321,73
1139416,305,73
1139427,329,73
1139437,310,73
1139439,319,73
1139456,331,73
1139456,309,73
1139478,334,73
1139488,325,73
1139488,321,73
1139506,339,73
1139519,317,73
1139529,334,73
1139538,334,73
1139550,319,73
1139555,343,73
1139571,324,73
1139580,332,73
1139588,346,73
1139600,323,73
1139611,348,73
1139622,340,73
1139627,334,73
1139639,355,73
1139652,329,73
1139662,345,73
1139671,349,73
1139684,332,73
1139688,356,73
1139704,338,73
1139705,343,73
1139721,355,73
1139734,331,73
1139739,353,73
1139755,345,73
1139765,337,73
1139772,360,73
1139786,336,73
1139796,356,73
1139805,361,73
1139805,345,73
1139827,363,73
1139837,333,73
1139848,339,73
1139855,355,73
1139855,331,73
1139878,350,73
1139888,341,73
1139899,335,73
1139905,356,73
1139920,331,73
1139930,345,73
1139938,349,73
1139950,331,73
1139954,354,73
1139970,349,73
1139981,375,73
1139988,503,72
1140001,481,72
1140004,372,72
1140022,291,72
1140032,338,72
1140039,351,72
1140052,329,72
1140063,341,72
1140071,347,72
1140084,327,72
1140090,351,72
1140090,338,72
1140105,342,72
1140122,359,72
1140136,335,72
1140139,361,72
1140155,356,72
1140166,351,72
1140172,378,72
1140186,366,72
1140196,386,72
1140205,400,72
1140217,390,72
1140227,415,72
1140238,398,72
1140239,377,72
1140254,369,72
1140269,325,72
1140278,332,72
1140289,321,72
1140289,307,72
1140304,326,72
1140319,302,72
1140330,313,72
1140338,322,72
1140351,298,72
1140361,321,72
1140371,308,72
1140379,308,72
1140389,328,72
1140389,304,72
1140412,321,72
1140422,317,72
1140432,304,72
1140439,328,72
1140453,304,72
1140463,316,72
1140472,325,72
1140484,304,72
1140494,329,72
1140504,314,72
1140514,310,72
1140525,329,72
1140536,306,72
1140546,326,72
1140555,320,72
1140555,307,72
1140571,330,72
1140586,312,72
1140597,320,72
1140605,329,72
1140617,309,72
1140626,331,72
1140638,320,72
1140649,318,72
1140655,336,72
1140655,309,72
1140672,336,72
1140689,337,72
1140689,322,72
1140705,343,72
1140705,313,72
1140728,320,72
1140738,332,72
1140751,308,72
1140761,330,72
1140772,317,72
1140782,314,72
1140788,332,72
1140803,309,72
1140813,324,72
1140822,326,72
1140833,307,72
1140838,332,72
1140854,326,72
1140855,346,72
1140872,451,72
1140885,443,72
1140895,349,72
1140905,265,72
1140914,317,72
1140921,328,72
1140936,308,72
1140946,325,72
1140955,328,72
1140966,311,72
1140977,339,72
1140987,322,72
1140989,326,72
1141006,343,72
1141006,323,72
1141022,346,72
1141038,342,72
1141049,338,72
1141055,367,72
1141068,350,72
1141079,374,72
1141088,385,72
1141099,377,72
1141110,406,72
1141121,383,72
1141131,370,72
1141139,358,72
1141151,315,72
1141155,319,72
1141171,305,72
1141181,294,72
1141189,315,72
1141203,291,72
1141213,305,72
1141221,307,72
1141233,289,72
1141239,311,72
1141254,297,72
1141255,299,72
1141271,317,72
1141284,292,72
1141295,313,72
1141304,310,72
1141316,299,72
1141322,320,72
1141330,301,72
1141340,309,72
1141355,316,72
1141366,297,72
1141372,321,72
1141387,306,72
1141388,306,72
1141405,321,72
1141418,298,72
1141428,320,72
1141438,314,72
1141448,304,72
1141455,327,72
1141469,305,72
1141479,318,72
1141488,324,72
1141500,303,72
1141510,332,72
1141521,319,72
1141532,321,72
1141538,338,72
1141551,304,72
1141555,321,72
1141572,318,72
1141582,305,72
1141588,328,72
1141603,304,72
1141613,313,72
1141621,323,72
1141634,304,72
1141643,325,72
1141655,313,72
1141664,313,72
1141672,330,72
1141685,310,72
1141695,342,72
1141705,405,72
1141716,458,72
1141722,370,72
1141729,253,72
1141747,318,72
1141755,330,72
1141767,307,72
1141777,332,72
1141787,320,72
1141798,317,72
1141806,340,72
1141806,317,72
1141829,335,72
1141839,336,72
1141839,326,72
1141855,353,72
1141870,336,72
1141872,348,72
1141889,365,72
1141889,353,72
1141906,384,72
1141906,383,72
1141932,382,72
1141938,411,72
1141952,387,72
1141955,387,72
1141971,361,72
1141983,319,72
1141988,329,72
1142004,303,72
1142014,301,72
1142022,312,72
1142034,288,72
1142044,311,72
1142054,299,72
1142064,291,72
1142071,314,72
1142086,291,72
1142095,304,72
1142104,309,72
1142116,292,72
1142121,320,72
1142137,301,72
1142139,307,72
1142155,324,72
1142168,299,72
1142175,324,72
1142188,314,72
1142198,303,72
1142205,326,72
1142219,304,72
1142229,319,72
1142238,322,72
1142249,306,72
1142255,331,72
1142255,313,72
1142271,316,72
1142289,332,72
1142289,308,72
1142304,331,72
1142322,324,72
1142332,313,72
1142338,345,72
1142352,323,72
1142363,339,72
1142372,337,72
1142384,308,72
1142393,337,72
1142404,321,72
1142413,322,72
1142422,338,72
1142430,314,72
1142440,335,72
1142455,329,72
1142466,319,72
1142472,343,72
1142480,322,72
1142489,332,72
1142505,338,72
1142505,331,72
1142522,377,72
1142531,470,72
1142547,461,72
1142555,363,72
1142555,273,72
1142578,340,72
1142588,326,72
1142588,317,72
1142606,342,72
1142620,319,72
1142629,332,72
1142639,339,72
1142639,321,72
1142655,347,72
1142670,335,72
1142681,337,72
1142688,359,72
1142701,337,72
1142712,359,72
1142722,364,72
1142732,358,72
1142738,390,72
1142753,379,72
1142763,393,72
1142772,408,72
1142772,382,72
1142788,385,72
1142803,347,72
1142805,324,72
1142822,331,72
1142834,302,72
1142845,317,72
1142855,315,72
1142865,300,72
1142871,324,72
1142886,304,72
1142897,312,72
1142905,321,72
1142917,301,72
1142927,324,72
1142937,313,72
1142948,310,72
1142955,328,72
1142968,305,72
1142978,326,72
1142988,328,72
1142999,312,72
1143005,336,72
1143005,316,72
1143023,326,72
1143038,339,72
1143050,315,72
1143061,338,72
1143071,323,72
1143081,320,72
1143088,339,72
1143102,317,72
1143105,332,72
1143122,332,72
1143130,315,72
1143139,340,72
1143153,321,72
1143155,331,72
1143171,348,72
1143184,323,72
1143194,351,72
1143204,336,72
1143214,320,72
1143222,342,72
1143234,318,72
1143245,332,72
1143255,334,72
1143266,317,72
1143272,340,72
1143287,320,72
1143297,326,72
1143305,340,72
1143305,321,72
1143322,342,72
1143338,333,72
1143348,333,72
1143355,370,72
1143355,450,72
1143371,502,72
1143388,398,72
1143399,262,72
1143410,345,72
1143420,322,72
1143430,323,72
1143438,338,72
1143450,317,72
1143455,339,72
1143471,330,72
1143482,325,72
1143488,347,72
1143503,327,72
1143512,342,72
1143521,347,72
1143532,333,72
1143539,363,72
1143554,351,72
1143564,361,72
1143572,385,72
1143584,372,72
1143589,404,72
1143605,402,72
1143615,393,72
1143622,397,72
1143636,349,72
1143638,340,72
1143656,332,72
1143656,306,72
1143672,328,72
1143687,308,72
1143688,307,72
1143704,323,72
1143718,298,72
1143721,318,72
1143739,313,72
1143739,302,72
1143754,327,72
1143769,304,72
1143779,316,72
1143789,322,72
1143789,300,72
1143810,327,72
1143821,312,72
1143830,311,72
1143838,328,72
1143851,302,72
1143862,324,72
1143871,321,72
1143882,307,72
1143888,331,72
1143902,308,72
1143913,320,72
1143922,327,72
1143934,308,72
1143944,332,72
1143954,318,72
1143956,318,72
1143972,336,72
1143982,311,72
1143988,328,72
1144005,327,72
1144016,317,72
1144021,345,72
1144035,327,72
1144046,331,72
1144055,331,72
1144067,308,72
1144077,333,72
1144087,322,72
1144098,319,72
1144106,337,72
1144118,311,72
1144122,328,72
1144138,326,72
1144149,313,72
1144155,339,72
1144155,318,72
1144172,328,72
1144189,337,72
1144200,328,72
1144210,425,71
1144221,522,71
1144231,448,71
1144238,283,71
1144238,301,71
1144255,333,71
1144271,324,71
1144282,311,71
1144288,335,71
1144288,317,71
1144305,325,71
1144322,338,71
1144331,317,71
1144338,342,71
1144354,331,71
1144355,328,71
1144372,352,71
1144385,332,71
1144388,351,71
1144405,361,71
1144416,355,71
1144424,387,71
1144436,379,71
1144439,394,71
1144455,411,71
1144455,378,71
1144472,376,71
1144488,342,71
1144498,314,71
1144504,324,71
1144518,296,71
1144522,306,71
1144538,311,71
1144549,293,71
1144555,318,71
1144555,300,71
1144580,303,71
1144588,317,71
1144601,295,71
1144605,317,71
1144621,308,71
1144631,301,71
1144639,322,71
1144651,300,71
1144662,315,71
1144671,317,71
1144682,300,71
1144688,324,71
1144688,305,71
1144713,310,71
1144722,323,71
1144732,299,71
1144744,322,71
1144755,315,71
1144756,307,71
1144772,330,71
1144786,307,71
1144789,319,71
1144805,324,71
1144805,305,71
1144822,333,71
1144832,315,71
1144847,315,71
1144855,331,71
1144867,313,71
1144877,335,71
1144888,333,71
1144899,319,71
1144905,329,71
1144919,308,71
1144928,320,71
1144939,326,71
1144949,308,71
1144955,332,71
1144955,316,71
1144981,315,71
1144988,332,71
1144988,307,71
1145011,327,71
1145022,326,71
1145030,315,71
1145039,341,71
1145052,338,71
1145063,441,71
1145071,530,71
1145083,408,71
1145093,263,71
1145103,318,71
1145114,318,71
1145123,332,71
1145134,309,71
1145145,329,71
1145155,328,71
1145156,317,71
1145175,341,71
1145186,322,71
1145196,332,71
1145204,343,71
1145217,325,71
1145222,352,71
1145237,341,71
1145247,346,71
1145258,372,71
1145268,358,71
1145278,387,71
1145288,397,71
1145288,391,71
1145305,416,71
1145319,380,71
1145321,362,71
1145338,348,71
1145350,312,71
1145355,325,71
1145355,307,71
1145371,302,71
1145388,320,71
1145400,296,71
1145405,315,71
1145422,314,71
1145432,299,71
1145438,322,71
1145438,303,71
1145455,309,71
1145472,322,71
1145483,301,71
1145489,322,71
1145504,310,71
1145513,308,71
1145521,330,71
1145535,306,71
1145545,324,71
1145555,323,71
1145566,307,71
1145572,329,71
1145587,310,71
1145596,316,71
1145605,327,71
1145617,305,71
1145622,329,71
1145637,319,71
1145648,313,71
1145655,334,71
1145668,310,71
1145678,328,71
1145688,331,71
1145699,315,71
1145704,338,71
1145704,322,71
1145730,331,71
1145738,346,71
1145738,326,71
1145755,340,71
1145771,322,71
1145772,317,71
1145788,339,71
1145802,317,71
1145805,330,71
1145821,331,71
1145832,314,71
1145838,338,71
1145853,318,71
1145863,325,71
1145872,340,71
1145884,317,71
1145894,337,71
1145904,341,71
1145905,359,71
1145921,492,70
1145935,477,70
1145939,356,70
1145954,283,70
1145966,325,70
1145972,338,70
1145980,321,70
1145987,325,70
1146007,343,70
1146011,321,70
1146027,342,70
1146039,337,70
1146048,325,70
1146055,349,70
1146069,333,70
1146079,348,70
1146088,358,70
1146099,342,70
1146105,371,70
1146120,367,70
1146130,375,70
1146139,402,70
1146151,386,70
1146161,410,70
1146170,401,70
1146182,370,70
1146189,367,70
1146189,326,70
1146206,324,70
1146223,324,70
1146232,298,70
1146238,325,70
1146253,313,70
1146264,307,70
1146272,325,70
1146279,300,70
1146289,318,70
1146304,316,70
1146315,304,70
1146321,328,70
1146336,306,70
1146346,316,70
1146355,324,70
1146366,304,70
1146376,327,70
1146387,314,70
1146397,313,70
1146405,333,70
1146418,306,70
1146428,326,70
1146438,323,70
1146448,310,70
1146456,334,70
1146456,315,70
1146479,324,70
1146488,334,70
1146500,312,70
1146505,335,70
1146520,320,70
1146531,316,70
1146539,337,70
1146539,312,70
1146554,327,70
1146572,333,70
1146581,322,70
1146588,348,70
1146602,327,70
1146613,323,70
1146622,332,70
1146633,312,70
1146638,337,70
1146654,324,70
1146656,322,70
1146674,340,70
1146684,313,70
1146695,332,70
1146705,334,70
1146705,317,70
1146721,342,70
1146735,321,70
1146738,331,70
1146755,354,70
1146767,390,70
1146772,505,70
1146788,397,70
1146798,264,70
1146805,335,70
1146817,320,70
1146822,330,70
1146838,334,70
1146849,319,70
1146854,346,70
1146869,329,70
1146880,337,70
1146888,349,70
1146899,330,70
1146910,353,70
1146920,346,70
1146931,344,70
1146938,368,70
1146952,351,70
1146961,369,70
1146971,381,70
1146983,372,70
1146989,404,70
1146989,395,70
1147006,398,70
1147021,398,70
1147034,353,70
1147038,350,70
1147053,325,70
1147065,307,70
1147071,325,70
1147085,297,70
1147095,312,70
1147105,317,70
1147115,297,70
1147125,321,70
1147136,303,70
1147147,307,70
1147155,320,70
1147167,299,70
1147177,321,70
1147188,315,70
1147198,308,70
1147205,331,70
1147205,309,70
1147229,325,70
1147238,327,70
1147249,309,70
1147255,333,70
1147270,316,70
1147281,317,70
1147288,333,70
1147301,309,70
1147311,329,70
1147321,326,70
1147331,312,70
1147338,338,70
1147338,316,70
1147362,325,70
1147372,334,70
1147382,315,70
1147393,343,70
1147403,332,70
1147413,332,70
1147422,343,70
1147435,310,70
1147439,328,70
1147454,326,70
1147465,314,70
1147472,336,70
1147485,312,70
1147496,323,70
1147506,334,70
1147506,314,70
1147522,339,70
1147534,323,70
1147546,325,70
1147555,340,70
1147555,329,70
1147572,365,70
1147581,447,70
1147588,440,70
1147604,342,70
1147619,270,70
1147622,340,70
1147638,335,70
1147649,316,70
1147660,341,70
1147670,331,70
1147675,329,70
1147688,349,70
1147700,325,70
1147711,348,70
1147721,348,70
1147732,338,70
1147738,362,70
1147752,347,70
1147762,357,70
1147772,375,70
1147778,360,70
1147787,395,70
1147803,389,70
1147814,395,70
1147821,418,70
1147834,390,70
1147845,388,70
1147855,359,70
1147855,325,70
1147873,334,70
1147886,306,70
1147896,312,70
1147905,321,70
1147905,298,70
1147927,320,70
1147936,309,70
1147947,301,70
1147955,321,70
1147967,297,70
1147978,313,70
1147988,316,70
1147988,303,70
1148004,330,70
1148019,310,70
1148021,318,70
1148038,326,70
1148038,306,70
1148055,326,70
1148071,319,70
1148072,313,70
1148089,331,70
1148101,306,70
1148105,321,70
1148122,323,70
1148132,305,70
1148138,328,70
1148152,315,70
1148156,320,70
1148172,332,70
1148184,315,70
1148188,342,70
1148204,333,70
1148214,321,70
1148221,336,70
1148234,310,70
1148239,328,70
1148255,330,70
1148266,310,70
1148272,336,70
1148281,315,70
1148296,320,70
1148305,331,70
1148305,307,70
1148322,332,70
1148335,324,70
1148348,317,70
1148355,341,70
1148369,333,70
1148379,391,70
1148388,493,71
1148388,385,71
1148404,292,71
1148421,307,71
1148421,328,71
1148439,337,71
1148439,317,71
1148456,339,71
1148456,335,71
1148482,326,71
1148489,350,71
1148489,328,71
1148504,343,71
1148522,353,71
1148533,337,71
1148538,363,71
1148538,351,71
1148564,359,71
1148571,379,71
1148584,367,71
1148593,394,71
1148604,397,71
1148615,392,71
1148621,415,71
1148635,382,71
1148646,369,71
1148655,351,71
1148666,314,71
1148672,328,71
1148686,306,71
1148689,305,71
1148705,323,71
1148717,295,71
1148728,313,71
1148738,308,71
1148748,298,71
1148755,320,71
1148768,298,71
1148778,312,71
1148788,318,71
1148788,299,71
1148804,324,71
1148820,311,71
1148830,313,71
1148839,330,71
1148839,306,71
1148855,326,71
1148871,321,71
1148881,310,71
1148888,335,71
1148888,313,71
1148904,322,71
1148922,330,71
1148933,308,71
1148938,329,71
1148953,313,71
1148963,316,71
1148971,332,71
1148984,312,71
1148994,337,71
1149004,335,71
1149015,324,71
1149022,342,71
1149022,311,71
1149046,321,71
1149055,332,71
1149055,310,71
1149071,331,71
1149087,316,71
1149097,316,71
1149105,336,71
1149118,313,71
1149127,333,71
1149138,330,71
1149148,316,71
1149155,339,71
1149169,323,71
1149178,346,71
1149189,454,72
1149189,473,72
1149206,389,72
1149220,265,72
1149231,318,72
1149239,332,72
1149239,308,72
1149256,327,72
1149271,328,72
1149282,315,72
1149287,339,72
1149302,324,72
1149305,332,72
1149322,344,72
1149331,325,72
1149339,351,72
1149339,343,72
1149356,343,72
1149372,367,72
1149384,351,72
1149395,377,72
1149404,386,72
1149415,378,72
1149426,409,72
1149436,386,72
1149446,374,72
1149455,361,72
1149467,323,72
1149475,331,72
1149475,314,72
1149488,304,72
1149505,323,72
1149518,297,72
1149528,315,72
1149538,314,72
1149548,300,72
1149555,325,72
1149569,305,72
1149580,312,72
1149588,324,72
1149600,302,72
1149605,325,72
1149621,314,72
1149631,308,72
1149638,330,72
1149651,308,72
1149655,322,72
1149671,324,72
1149683,308,72
1149688,331,72
1149688,312,72
1149713,319,72
1149722,330,72
1149731,306,72
1149739,331,72
1149739,321,72
1149765,315,72
1149772,337,72
1149784,312,72
1149795,328,72
1149805,335,72
1149816,320,72
1149822,347,72
1149828,329,72
1149847,327,72
1149855,333,72
1149855,311,72
1149872,332,72
1149881,321,72
1149898,313,72
1149905,334,72
1149918,312,72
1149929,326,72
1149939,330,72
1149939,314,72
1149955,339,72
1149969,323,72
1149980,325,72
1149989,352,72
1149989,376,72
1150004,509,72
1150021,461,72
1150031,303,72
1150039,309,72
1150039,319,72
1150055,326,72
1150072,331,72
1150082,313,72
1150088,339,72
1150103,324,72
1150114,328,72
1150121,342,72
1150134,319,72
1150139,342,72
1150155,337,72
1150165,330,72
1150171,356,72
1150185,337,72
1150195,356,72
1150205,370,72
1150216,362,72
1150222,397,72
1150237,388,72
1150242,393,72
1150255,398,72
1150267,352,72
1150278,350,72
1150287,326,72
1150299,308,72
1150304,323,72
1150318,300,72
1150322,310,72
1150338,315,72
1150342,295,72
1150355,320,72
1150370,306,72
1150380,306,72
1150389,322,72
1150389,301,72
1150411,317,72
1150421,314,72
1150432,302,72
1150440,329,72
1150452,305,72
1150462,318,72
1150473,325,72
1150478,305,72
1150489,330,72
1150489,312,72
1150505,313,72
1150521,330,72
1150534,307,72
1150540,328,72
1150554,323,72
1150565,312,72
1150571,336,72
1150585,316,72
1150588,325,72
1150605,331,72
1150605,311,72
1150622,337,72
1150638,322,72
1150640,319,72
1150655,343,72
1150655,326,72
1150672,346,72
1150688,341,72
1150699,321,72
1150706,336,72
1150706,317,72
1150722,325,72
1150739,332,72
1150740,311,72
1150755,333,72
1150770,320,72
1150781,320,72
1150789,338,72
1150801,315,72
1150805,331,72
1150821,333,72
1150833,320,72
1150840,353,72
1150840,360,72
1150863,488,72
1150872,506,72
1150883,341,72
1150888,289,72
1150904,334,72
1150906,320,72
1150922,337,72
1150934,315,72
1150940,335,72
1150955,333,72
1150966,320,72
1150972,346,72
1150986,326,72
1150996,336,72
1151006,346,72
1151017,327,72
1151021,353,72
1151037,344,72
1151048,348,72
1151055,376,72
1151055,363,72
1151078,390,72
1151088,398,72
1151099,390,72
1151106,411,72
1151120,370,72
1151129,353,72
1151139,342,72
1151150,306,72
1151161,322,72
1151171,308,72
1151181,304,72
1151190,322,72
1151201,297,72
1151212,315,72
1151222,315,72
1151222,300,72
1151241,323,72
1151253,304,72
1151257,312,72
1151271,322,72
1151284,301,72
1151294,322,72
1151304,313,72
1151315,306,72
1151321,327,72
1151335,305,72
1151345,324,72
1151355,324,72
1151366,309,72
1151372,333,72
1151386,315,72
1151397,318,72
1151405,331,72
1151417,312,72
1151422,333,72
1151438,324,72
1151441,314,72
1151455,337,72
1151468,314,72
1151478,327,72
1151489,328,72
1151499,310,72
1151505,337,72
1151520,317,72
1151530,320,72
1151538,337,72
1151541,320,72
1151561,344,72
1151571,334,72
1151581,320,72
1151588,336,72
1151602,317,72
1151613,331,72
1151622,333,72
1151633,315,72
1151641,340,72
1151641,324,72
1151663,328,72
1151672,341,72
1151684,320,72
1151689,340,72
1151704,332,72
1151715,321,72
1151721,354,72
1151735,375,72
1151746,510,71
1151755,494,71
1151766,312,71
1151772,301,71
1151787,330,71
1151797,319,71
1151804,335,71
1151817,314,71
1151822,336,71
1151838,328,71
1151848,321,71
1151855,346,71
1151855,321,71
1151872,336,71
1151888,342,71
1151899,326,71
1151905,354,71
1151905,341,71
1151931,350,71
1151938,375,71
1151951,361,71
1151955,393,71
1151971,394,71
1151979,388,71
1151988,408,71
1152003,364,71
1152005,348,71
1152022,335,71
1152031,303,71
1152041,320,71
1152053,300,71
1152055,301,71
1152071,318,71
1152085,295,71
1152095,317,71
1152105,311,71
1152115,301,71
1152122,324,71
1152136,302,71
1152146,313,71
1152156,319,71
1152156,300,71
1152172,323,71
1152186,310,71
1152197,310,71
1152205,326,71
1152218,304,71
1152227,322,71
1152239,320,71
1152249,307,71
1152255,333,71
1152255,311,71
1152272,318,71
1152288,327,71
1152300,307,71
1152305,333,71
1152321,318,71
1152329,317,71
1152338,334,71
1152351,315,71
1152361,332,71
1152371,328,71
1152382,316,71
1152389,342,71
1152389,318,71
1152413,327,71
1152421,342,71
1152434,323,71
1152442,349,71
1152454,332,71
1152455,320,71
1152473,337,71
1152485,315,71
1152495,330,71
1152505,325,71
1152516,314,71
1152522,338,71
1152536,318,71
1152542,327,71
1152555,332,71
1152567,311,71
1152577,335,71
1152588,322,71
1152598,326,71
1152605,361,71
1152605,437,71
1152628,501,71
1152638,389,71
1152642,249,71
1152656,343,71
1152656,317,71
1152672,324,71
1152688,335,71
1152700,316,71
1152711,339,71
1152721,331,71
1152731,328,71
1152738,347,71
1152752,328,71
1152762,346,71
1152771,346,71
1152782,332,71
1152789,363,71
1152789,350,71
1152805,364,71
1152823,384,71
1152832,372,71
1152844,400,71
1152855,395,71
1152865,391,71
1152873,394,71
1152885,345,71
1152895,340,71
1152905,327,71
1152905,303,71
1152922,323,71
1152936,306,71
1152943,309,71
1152956,319,71
1152968,296,71
1152977,317,71
1152988,308,71
1152997,300,71
1153005,323,71
1153005,302,71
1153021,315,71
1153038,317,71
1153050,305,71
1153055,330,71
1153071,309,71
1153080,314,71
1153088,329,71
1153101,305,71
1153111,328,71
1153121,319,71
1153131,311,71
1153139,335,71
1153152,312,71
1153155,326,71
1153172,331,71
1153183,313,71
1153189,338,71
1153203,322,71
1153213,326,71
1153221,338,71
1153234,317,71
1153244,339,71
1153254,332,71
1153265,328,71
1153272,352,71
1153285,332,71
1153289,338,71
1153305,331,71
1153316,315,71
1153325,339,71
1153337,322,71
1153343,323,71
1153355,338,71
1153368,316,71
1153372,338,71
1153388,334,71
1153388,322,71
1153405,344,71
1153419,324,71
1153428,337,71
1153438,355,71
1153449,354,71
1153455,466,71
1153470,457,71
