Timestamp,ECGValue,BPM
1508146,305,69
1508156,328,69
1508167,302,69
1508173,314,69
1508187,318,69
1508191,297,69
1508206,324,69
1508218,307,69
1508228,308,69
1508238,325,69
1508249,302,69
1508257,327,69
1508269,320,69
1508273,309,69
1508289,337,69
1508300,312,69
1508307,325,69
1508320,332,69
1508330,310,69
1508340,338,69
1508351,322,69
1508357,322,69
1508371,340,69
1508375,312,69
1508390,335,69
1508390,330,69
1508409,317,69
1508423,342,69
1508433,319,69
1508439,331,69
1508439,340,69
1508456,317,69
1508473,348,69
1508482,335,69
1508495,333,69
1508505,350,69
1508507,311,69
1508524,330,69
1508533,328,69
1508541,312,69
1508556,339,69
1508567,312,69
1508573,324,69
1508587,337,69
1508590,314,69
1508607,336,69
1508619,323,69
1508628,320,69
1508639,341,69
1508649,326,69
1508656,368,69
1508669,458,69
1508680,473,69
1508689,384,69
1508700,265,69
1508707,330,69
1508707,330,69
1508728,311,69
1508741,340,69
1508752,329,69
1508762,326,69
1508772,349,69
1508782,326,69
1508790,345,69
1508802,345,69
1508813,330,69
1508823,361,69
1508828,342,69
1508841,356,69
1508855,372,69
1508857,354,69
1508873,388,69
1508881,383,69
1508890,386,69
1508905,414,69
1508907,387,69
1508924,395,69
1508933,371,69
1508940,330,69
1508957,343,69
1508957,310,69
1508973,310,69
1508988,324,69
1508990,297,69
1509007,321,69
1509007,311,69
1509029,299,69
1509039,328,69
1509049,302,69
1509058,317,69
1509070,322,69
1509080,303,69
1509090,329,69
1509090,312,69
1509107,315,69
1509107,330,69
1509129,304,69
1509139,327,69
1509152,320,69
1509161,308,69
1509173,335,69
1509183,306,69
1509190,323,69
1509204,327,69
1509214,305,69
1509223,333,69
1509234,314,69
1509239,318,69
1509255,334,69
1509265,309,69
1509275,330,69
1509286,324,69
1509293,315,69
1509306,338,69
1509316,314,69
1509327,333,69
1509336,338,69
1509344,320,69
1509357,346,69
1509368,321,69
1509377,317,69
1509388,338,69
1509394,312,69
1509394,335,69
1509419,327,69
1509429,314,69
1509436,339,69
1509450,317,69
1509460,330,69
1509470,337,69
1509477,316,69
1509491,342,69
1509501,322,69
1509510,339,69
1509510,400,69
1509529,492,69
1509536,474,69
1509544,326,69
1509560,282,69
1509573,342,69
1509577,311,69
1509593,326,69
1509594,334,69
1509610,313,69
1509625,342,69
1509634,328,69
1509644,328,69
1509655,348,69
1509660,323,69
1509676,346,69
1509685,345,69
1509694,333,69
1509694,364,69
1509717,346,69
1509727,363,69
1509738,383,69
1509743,368,69
1509758,401,69
1509767,391,69
1509777,386,69
1509788,394,69
1509794,343,69
1509809,344,69
1509818,328,69
1509829,302,69
1509839,325,69
1509850,300,69
1509860,311,69
1509870,321,69
1509877,295,69
1509891,322,69
1509894,309,69
1509910,305,69
1509922,328,69
1509930,300,69
1509936,318,69
1509945,316,69
1509962,301,69
1509973,328,69
1509984,307,69
1509994,315,69
1510004,326,69
1510010,298,69
1510010,325,69
1510035,312,69
1510043,308,69
1510056,330,69
1510061,303,69
1510076,324,69
1510083,324,69
1510093,309,69
1510093,337,69
1510111,314,69
1510127,317,69
1510137,334,69
1510145,309,69
1510158,336,69
1510160,324,69
1510177,317,69
1510189,341,69
1510199,315,69
1510210,336,69
1510220,335,69
1510230,316,69
1510240,350,69
1510243,334,69
1510259,337,69
1510272,350,69
1510277,319,69
1510292,336,69
1510294,329,69
1510311,318,69
1510322,342,69
1510330,314,69
1510342,329,69
1510353,333,69
1510360,313,69
1510373,341,69
1510378,322,69
1510393,324,69
1510405,343,69
1510410,316,69
1510425,352,69
1510435,382,69
1510443,488,68
1510456,514,68
1510466,334,68
1510476,284,68
1510478,342,68
1510493,313,68
1510507,338,68
1510517,319,68
1510527,322,68
1510535,342,68
1510543,315,68
1510543,339,68
1510569,336,68
1510576,326,68
1510590,353,68
1510599,330,68
1510610,345,68
1510620,354,68
1510630,340,68
1510631,372,68
1510644,363,68
1510661,369,68
1510661,397,68
1510678,377,68
1510692,400,68
1510694,384,68
1510710,348,68
1510710,353,68
1510730,314,68
1510743,314,68
1510753,318,68
1510760,295,68
1510760,322,68
1510784,308,68
1510794,306,68
1510805,324,68
1510811,298,68
1510825,318,68
1510833,315,68
1510843,302,68
1510856,328,68
1510866,304,68
1510877,315,68
1510887,324,68
1510893,302,68
1510907,330,68
1510911,314,68
1510928,313,68
1510937,336,68
1510944,309,68
1510944,328,68
1510959,326,68
1510977,311,68
1510989,338,68
1511000,316,68
1511010,324,68
1511021,335,68
1511027,311,68
1511041,340,68
1511044,327,68
1511061,320,68
1511072,343,68
1511080,317,68
1511093,337,68
1511102,334,68
1511111,317,68
1511111,346,68
1511133,322,68
1511143,331,68
1511154,343,68
1511161,316,68
1511175,341,68
1511184,330,68
1511193,324,68
1511205,346,68
1511210,318,68
1511226,346,68
1511236,345,68
1511244,329,68
1511257,355,68
1511261,323,68
1511277,327,68
1511287,345,68
1511294,318,68
1511308,343,68
1511317,329,68
1511327,320,68
1511339,345,68
1511344,317,68
1511359,335,68
1511361,338,68
1511377,319,68
1511390,347,68
1511394,325,68
1511410,344,68
1511420,414,67
1511427,509,67
1511435,497,67
1511452,303,67
1511460,284,67
1511472,346,67
1511482,314,67
1511493,331,67
1511503,334,67
1511510,316,67
1511510,345,67
1511531,325,67
1511543,329,67
1511544,347,67
1511560,322,67
1511560,349,67
1511585,345,67
1511593,335,67
1511606,366,67
1511616,346,67
1511627,368,67
1511636,382,67
1511644,368,67
1511644,405,67
1511667,392,67
1511677,391,67
1511688,398,67
1511693,347,67
1511708,349,67
1511718,328,67
1511727,305,67
1511738,326,67
1511749,300,67
1511760,312,67
1511770,317,67
1511779,297,67
1511779,322,67
1511801,306,67
1511810,305,67
1511810,324,67
1511827,297,67
1511836,319,67
1511844,316,67
1511861,301,67
1511861,326,67
1511883,302,67
1511893,315,67
1511894,324,67
1511910,302,67
1511910,329,67
1511932,313,67
1511943,309,67
1511955,329,67
1511960,304,67
1511960,324,67
1511977,321,67
1511994,306,67
1512006,334,67
1512010,309,67
1512026,319,67
1512037,330,67
1512043,307,67
1512056,337,67
1512067,321,67
1512076,315,67
1512088,336,67
1512093,311,67
1512108,332,67
1512119,329,67
1512127,313,67
1512132,340,67
1512150,317,67
1512160,325,67
1512170,336,67
1512177,312,67
1512191,338,67
1512201,324,67
1512210,326,67
1512222,353,67
1512232,324,67
1512243,343,67
1512252,335,67
1512261,311,67
1512261,340,67
1512278,319,67
1512293,322,67
1512304,333,67
1512311,311,67
1512311,341,67
1512333,327,67
1512342,320,67
1512342,345,67
1512358,316,67
1512374,336,67
1512385,337,67
1512396,326,67
1512406,382,67
1512406,475,66
1512422,500,66
1512437,379,66
1512447,256,66
1512455,340,66
1512468,324,66
1512473,318,66
1512488,339,66
1512499,317,66
1512505,334,66
1512519,339,66
1512529,321,66
1512539,348,66
1512550,331,66
1512556,337,66
1512556,354,66
1512581,328,66
1512589,355,66
1512601,347,66
1512612,347,66
1512622,381,66
1512632,363,66
1512638,385,66
1512653,399,66
1512663,378,66
1512672,395,66
1512675,351,66
1512689,334,66
1512699,332,66
1512706,296,66
1512722,316,66
1512735,308,66
1512738,297,66
1512756,321,66
1512756,294,66
1512772,308,66
1512787,316,66
1512797,297,66
1512805,322,66
1512817,306,66
1512822,305,66
1512838,324,66
1512848,297,66
1512856,324,66
1512856,318,66
1512878,305,66
1512888,333,66
1512899,310,66
1512905,320,66
1512920,330,66
1512930,308,66
1512939,334,66
1512939,318,66
1512956,318,66
1512971,339,66
1512981,312,66
1512989,338,66
1513002,329,66
1513005,316,66
1513022,343,66
1513032,319,66
1513040,328,66
1513053,339,66
1513055,313,66
1513072,341,66
1513078,327,66
1513089,325,66
1513105,345,66
1513114,317,66
1513121,344,66
1513135,341,66
1513145,327,66
1513155,357,66
1513166,335,66
1513171,345,66
1513187,348,66
1513197,313,66
1513205,340,66
1513218,325,66
1513223,322,66
1513238,342,66
1513244,314,66
1513256,332,66
1513256,330,66
1513279,316,66
1513288,344,66
1513300,324,66
1513305,328,66
1513320,345,66
1513330,330,66
1513339,374,66
1513339,452,66
1513361,465,66
1513371,371,66
1513381,264,66
1513388,342,66
1513402,334,66
1513412,315,66
1513423,345,66
1513425,323,66
1513439,331,66
1513454,347,66
1513464,323,66
1513472,349,66
1513484,341,66
1513495,336,66
1513504,361,66
1513515,341,66
1513522,360,66
1513536,367,66
1513539,354,66
1513556,389,66
1513566,380,66
1513577,393,66
1513587,411,66
1513596,387,66
1513605,401,66
1513617,368,66
1513626,334,66
1513638,342,66
1513648,305,66
1513655,314,66
1513669,316,66
1513679,294,66
1513688,322,66
1513700,304,66
1513705,304,66
1513720,320,66
1513725,292,66
1513739,313,66
1513752,310,66
1513755,303,66
1513772,329,66
1513782,304,66
1513789,322,66
1513802,325,66
1513805,306,66
1513822,335,66
1513834,314,66
1513839,315,66
1513854,332,66
1513856,304,66
1513872,331,66
1513885,322,66
1513889,308,66
1513905,332,66
1513915,305,66
1513923,325,66
1513936,326,66
1513946,306,66
1513955,334,66
1513967,317,66
1513972,314,66
1513987,331,66
1513990,305,66
1514005,325,66
1514018,322,66
1514022,312,66
1514038,336,66
1514049,318,66
1514056,330,66
1514070,337,66
1514078,309,66
1514088,328,66
1514088,309,66
1514105,309,66
1514120,327,66
1514131,301,66
1514138,317,66
1514151,313,66
1514155,298,66
1514172,323,66
1514182,301,66
1514189,311,66
1514189,322,66
1514214,300,66
1514223,332,66
1514230,334,66
1514239,399,66
1514254,480,66
1514256,341,66
1514272,265,66
1514285,316,66
1514295,296,66
1514305,320,66
1514316,301,66
1514322,311,66
1514336,325,66
1514339,297,66
1514355,325,66
1514355,315,66
1514372,312,66
1514388,333,66
1514398,310,66
1514405,333,66
1514419,335,66
1514422,321,66
1514439,354,66
1514439,343,66
1514456,358,66
1514470,381,66
1514480,363,66
1514488,392,66
1514501,370,66
1514506,342,66
1514521,337,66
1514523,294,66
1514538,301,66
1514538,298,66
1514556,276,66
1514573,300,66
1514582,279,66
1514588,284,66
1514602,299,66
1514613,274,66
1514622,298,66
1514634,290,66
1514644,283,66
1514654,308,66
1514664,283,66
1514671,300,66
1514685,305,66
1514696,289,66
1514705,315,66
1514717,297,66
1514722,301,66
1514737,315,66
1514741,292,66
1514756,317,66
1514756,307,66
1514773,299,66
1514788,322,66
1514799,298,66
1514806,312,66
1514818,318,66
1514829,298,66
1514839,325,66
1514839,307,66
1514855,309,66
1514870,327,66
1514880,301,66
1514889,324,66
1514889,319,66
1514905,309,66
1514921,332,66
1514930,314,66
1514939,332,66
1514953,340,66
1514956,318,66
1514972,339,66
1514982,315,66
1514988,319,66
1515003,338,66
1515005,312,66
1515021,336,66
1515035,328,66
1515040,316,66
1515055,343,66
1515065,319,66
1515073,334,66
1515085,342,66
1515089,320,66
1515105,345,66
1515117,343,66
1515125,376,66
1515136,500,66
1515139,439,66
1515156,342,66
1515168,299,66
1515172,324,66
1515188,342,66
1515198,319,66
1515205,333,66
1515205,344,66
1515222,322,66
1515239,352,66
1515239,337,66
1515260,337,66
1515271,358,66
1515281,335,66
1515289,359,66
1515301,358,66
1515311,349,66
1515322,381,66
1515332,364,66
1515338,382,66
1515353,401,66
1515356,387,66
1515372,415,66
1515383,399,66
1515393,385,66
1515401,381,66
1515404,333,66
1515421,337,66
1515434,326,66
1515443,305,66
1515455,331,66
1515466,307,66
1515476,314,66
1515486,326,66
1515493,302,66
1515506,329,66
1515510,314,66
1515527,309,66
1515536,334,66
1515544,309,66
1515544,327,66
1515561,328,66
1515577,314,66
1515589,340,66
1515594,319,66
1515609,328,66
1515610,339,66
1515626,313,66
1515640,338,66
1515650,326,66
1515660,321,66
1515670,343,66
1515676,317,66
1515691,334,66
1515702,336,66
1515710,320,66
1515723,346,66
1515729,326,66
1515743,332,66
1515744,345,66
1515760,321,66
1515773,347,66
1515777,334,66
1515794,325,66
1515794,350,66
1515809,325,66
1515826,340,66
1515827,349,66
1515844,332,66
1515855,362,66
1515866,342,66
1515876,345,66
1515886,346,66
1515893,322,66
1515907,346,66
1515911,340,66
1515927,331,66
1515938,352,66
1515944,325,66
1515959,343,66
1515960,347,66
1515976,328,66
1515986,357,66
1515999,335,66
1516009,337,66
1516010,364,66
1516026,359,66
1516041,488,66
1516051,505,66
1516060,381,66
1516072,297,66
1516077,329,66
1516091,339,66
1516101,346,66
1516109,328,66
1516122,356,66
1516133,340,66
1516143,342,66
1516154,360,66
1516160,335,66
1516174,357,66
1516184,352,66
1516193,344,66
1516197,372,66
1516210,350,66
1516225,366,66
1516236,379,66
1516244,365,66
1516244,402,66
1516266,391,66
1516277,397,66
1516287,418,66
1516294,384,66
1516307,382,66
1516311,353,66
1516327,325,66
1516338,339,66
1516344,309,66
1516358,318,66
1516369,325,66
1516377,303,66
1516389,329,66
1516393,313,66
1516410,315,66
1516420,331,66
1516427,304,66
1516436,325,66
1516444,320,66
1516461,309,66
1516472,334,66
1516476,312,66
1516493,324,66
1516502,333,66
1516510,309,66
1516523,336,66
1516529,321,66
1516543,320,66
1516553,341,66
1516560,316,66
1516560,336,66
1516585,335,66
1516593,319,66
1516605,344,66
1516610,322,66
1516626,333,66
1516635,342,66
1516644,318,66
1516644,346,66
1516667,331,66
1516677,325,66
1516686,344,66
1516694,319,66
1516694,339,66
1516710,335,66
1516726,322,66
1516738,348,66
1516743,325,66
1516759,335,66
1516760,344,66
1516777,318,66
1516787,346,66
1516799,331,66
1516810,330,66
1516821,359,66
1516827,333,66
1516841,352,66
1516851,348,66
1516860,321,66
1516860,348,66
1516882,327,66
1516892,332,66
1516903,344,66
1516910,318,66
1516923,341,66
1516933,329,66
1516943,325,66
1516944,348,66
1516961,322,66
1516974,342,66
1516985,342,66
1516994,329,66
1516994,371,66
1517016,443,65
1517025,527,65
1517036,440,65
1517043,248,65
1517057,336,65
1517061,328,65
1517077,316,65
1517087,340,65
1517094,316,65
1517094,334,65
1517110,337,65
1517127,322,65
1517139,349,65
1517144,332,65
1517160,337,65
1517170,353,65
1517177,329,65
1517182,359,65
1517200,353,65
1517210,349,65
1517221,379,65
1517227,364,65
1517241,390,65
1517252,403,65
1517260,387,65
1517260,410,65
1517282,373,65
1517293,351,65
1517294,348,65
1517309,310,65
1517324,326,65
1517327,314,65
1517343,302,65
1517354,326,65
1517360,299,65
1517374,317,65
1517385,322,65
1517393,302,65
1517405,328,65
1517416,311,65
1517425,311,65
1517436,328,65
1517444,303,65
1517456,320,65
1517467,318,65
1517474,307,65
1517488,332,65
1517498,310,65
1517508,322,65
1517518,332,65
1517526,312,65
1517539,336,65
1517544,320,65
1517559,321,65
1517570,338,65
1517577,312,65
1517586,335,65
1517594,331,65
1517609,317,65
1517621,344,65
1517627,320,65
1517638,331,65
1517652,338,65
1517660,315,65
1517673,342,65
1517676,326,65
1517693,326,65
1517703,344,65
1517710,316,65
1517724,338,65
1517734,334,65
1517743,317,65
1517754,342,65
1517760,318,65
1517775,329,65
1517777,337,65
1517794,316,65
1517806,341,65
1517811,331,65
1517827,333,65
1517830,351,65
1517844,327,65
1517857,339,65
1517860,328,65
1517877,313,65
1517887,341,65
1517893,317,65
1517908,326,65
1517911,334,65
1517929,311,65
1517939,337,65
1517949,321,65
1517961,317,65
1517970,338,65
1517976,313,65
1517991,334,65
1518001,338,65
1518010,341,65
1518022,472,64
1518029,510,64
1518038,399,64
1518044,264,64
1518060,312,64
1518072,331,64
1518083,315,64
1518093,313,64
1518105,334,64
1518110,309,64
1518124,327,64
1518135,328,64
1518144,310,64
1518155,337,64
1518160,320,64
1518175,331,64
1518186,345,64
1518194,322,64
1518194,354,64
1518217,350,64
1518226,353,64
1518236,384,64
1518243,367,64
1518259,393,64
1518261,400,64
1518277,374,64
1518284,381,64
1518294,336,64
1518309,325,64
1518310,323,64
1518327,291,64
1518340,313,64
1518350,301,64
1518360,293,64
1518370,315,64
1518377,289,64
1518391,308,64
1518402,313,64
1518411,294,64
1518411,318,64
1518432,298,64
1518442,304,64
1518446,319,64
1518461,295,64
1518461,319,64
1518477,311,64
1518493,302,64
1518505,328,64
1518511,300,64
1518511,316,64
1518535,321,64
1518544,298,64
1518556,324,64
1518566,306,64
1518577,310,64
1518586,328,64
1518595,305,64
1518607,326,64
1518617,316,64
1518627,310,64
1518631,336,64
1518643,311,64
1518658,326,64
1518668,331,64
1518677,309,64
1518685,338,64
1518699,320,64
1518709,322,64
1518720,340,64
1518727,313,64
1518740,335,64
1518751,331,64
1518760,320,64
1518771,346,64
1518780,321,64
1518792,331,64
1518802,347,64
1518810,325,64
1518822,350,64
1518828,331,64
1518843,323,64
1518844,338,64
1518859,316,64
1518874,336,64
1518884,327,64
1518894,314,64
1518905,340,64
1518910,318,64
1518926,329,64
1518932,337,64
1518943,317,64
1518956,341,64
1518966,325,64
1518976,323,64
1518987,357,64
1518993,388,64
1519007,522,63
1519010,448,63
1519026,275,63
1519038,323,63
1519043,319,63
1519059,326,63
1519060,336,63
1519078,313,63
1519086,342,63
1519094,325,63
1519109,326,63
1519120,348,63
1519127,323,63
1519140,348,63
1519151,346,63
1519160,332,63
1519172,365,63
1519181,346,63
1519192,361,63
1519203,377,63
1519210,362,63
1519210,398,63
1519234,390,63
1519243,390,63
1519244,408,63
1519260,368,63
1519274,365,63
1519277,341,63
1519294,312,63
1519305,330,63
1519311,305,63
1519326,310,63
1519335,320,63
1519343,296,63
1519356,319,63
1519360,308,63
1519376,300,63
1519387,323,63
1519393,300,63
1519407,315,63
1519418,318,63
1519427,304,63
1519439,332,63
1519444,312,63
1519459,316,63
1519469,329,63
1519479,306,63
1519490,330,63
1519494,319,63
1519509,314,63
1519521,336,63
1519527,310,63
1519541,327,63
1519552,327,63
1519561,308,63
1519572,339,63
1519577,317,63
1519592,326,63
1519593,340,63
1519610,312,63
1519623,335,63
1519633,328,63
1519643,320,63
1519654,343,63
1519660,318,63
1519674,336,63
1519681,336,63
1519694,320,63
1519705,346,63
1519710,328,63
1519726,339,63
1519734,354,63
1519743,328,63
1519757,347,63
1519760,331,63
1519777,318,63
1519787,347,63
1519794,320,63
1519808,333,63
1519811,336,63
1519827,316,63
1519838,343,63
1519849,323,63
1519859,326,63
1519860,341,63
1519876,315,63
1519891,341,63
1519894,340,63
1519910,348,63
1519921,444,63
1519927,475,63
1519941,380,63
1519952,284,63
1519960,320,63
1519973,340,63
1519979,323,63
1519993,327,63
1520003,345,63
1520010,320,63
1520023,344,63
1520034,338,63
1520044,332,63
1520044,357,63
1520060,333,63
1520075,349,63
1520085,359,63
1520095,339,63
1520106,374,63
1520110,362,63
1520127,373,63
1520137,397,63
1520144,378,63
1520144,410,63
1520161,405,63
1520177,391,63
1520188,395,63
1520194,344,63
1520208,337,63
1520218,329,63
1520226,301,63
1520239,325,63
1520244,308,63
1520259,307,63
1520260,324,63
1520278,297,63
1520291,317,63
1520301,310,63
1520311,300,63
1520311,325,63
1520328,301,63
1520341,317,63
1520352,325,63
1520360,305,63
1520372,331,63
1520376,317,63
1520393,315,63
1520403,334,63
1520410,308,63
1520410,327,63
1520427,324,63
1520444,310,63
1520454,336,63
1520461,311,63
1520475,322,63
1520486,332,63
1520494,310,63
1520507,333,63
1520511,321,63
1520526,318,63
1520536,337,63
1520544,314,63
1520558,335,63
1520560,332,63
1520576,322,63
1520588,350,63
1520593,328,63
1520609,332,63
1520610,340,63
1520629,310,63
1520640,339,63
1520650,323,63
1520660,320,63
1520670,342,63
1520677,314,63
1520691,333,63
1520702,334,63
1520710,319,63
1520721,346,63
1520730,325,63
1520742,332,63
1520744,346,63
1520761,339,63
1520773,409,64
1520777,482,64
1520794,388,64
1520795,301,64
1520810,307,64
1520824,339,64
1520827,333,64
1520843,323,64
1520855,346,64
1520865,327,64
1520875,334,64
1520886,349,64
1520893,326,64
1520906,352,64
1520911,343,64
1520927,340,64
1520938,365,64
1520944,341,64
1520944,364,64
1520968,371,64
1520978,360,64
1520988,398,64
1520993,386,64
1521009,399,64
1521019,413,64
1521026,385,64
1521031,391,64
1521050,358,64
1521060,334,64
1521060,340,64
1521077,306,64
1521092,318,64
1521094,321,64
1521110,299,64
1521122,325,64
1521132,306,64
1521143,308,64
1521153,322,64
1521161,297,64
1521161,320,64
1521177,313,64
1521194,307,64
1521204,333,64
1521210,307,64
1521224,322,64
1521235,330,64
1521244,307,64
1521256,333,64
1521265,313,64
1521275,319,64
1521289,335,64
1521294,310,64
1521307,330,64
1521310,325,64
1521327,312,64
1521337,339,64
1521343,313,64
1521358,329,64
1521360,331,64
1521377,312,64
1521389,341,64
1521394,323,64
1521410,329,64
1521420,348,64
1521427,325,64
1521436,346,64
1521444,328,64
1521461,314,64
1521461,340,64
1521477,317,64
1521492,330,64
1521502,333,64
1521510,313,64
1521523,342,64
1521534,322,64
1521543,322,64
1521545,343,64
1521560,316,64
1521565,337,64
1521584,334,64
1521593,337,64
1521604,393,64
1521610,463,65
1521625,429,65
1521635,330,65
1521644,287,65
1521644,348,65
1521661,316,65
1521676,321,65
1521686,340,65
1521693,317,65
1521693,341,65
1521710,337,65
1521727,324,65
1521737,354,65
1521748,329,65
1521759,345,65
1521760,353,65
1521779,336,65
1521789,367,65
1521800,357,65
1521810,361,65
1521820,391,65
1521827,373,65
1521841,402,65
1521850,403,65
1521860,388,65
1521871,399,65
1521882,350,65
1521892,339,65
1521902,332,65
1521910,300,65
1521923,321,65
1521933,305,65
1521942,299,65
1521953,322,65
1521961,294,65
1521961,313,65
1521977,310,65
1521993,296,65
1521993,320,65
1522011,302,65
1522025,312,65
1522036,325,65
1522044,302,65
1522044,330,65
1522067,313,65
1522077,311,65
1522086,332,65
1522092,305,65
1522107,324,65
1522117,321,65
1522127,308,65
1522138,334,65
1522144,312,65
1522159,322,65
1522168,332,65
1522176,309,65
1522189,334,65
1522200,319,65
1522210,315,65
1522220,335,65
1522228,313,65
1522241,330,65
1522251,331,65
1522260,320,65
1522272,349,65
1522277,328,65
1522277,331,65
1522294,335,65
1522310,305,65
1522310,333,65
1522327,323,65
1522343,314,65
1522344,337,65
1522360,312,65
1522375,328,65
1522385,328,65
1522393,311,65
1522405,339,65
1522410,319,65
1522426,324,65
1522437,337,65
1522444,332,65
1522444,402,65
1522460,496,65
1522478,416,65
1522487,320,65
1522494,288,65
1522507,329,65
1522517,329,65
1522526,311,65
1522539,338,65
1522549,319,65
1522559,322,65
1522560,338,65
1522576,315,65
1522590,341,65
1522601,332,65
1522610,324,65
1522610,348,65
1522626,329,65
1522641,347,65
1522645,357,65
1522661,344,65
1522673,379,65
1522682,370,65
1522693,380,65
1522703,401,65
1522711,375,65
1522724,382,65
1522732,353,65
1522744,324,65
1522754,330,65
1522760,299,65
1522760,310,65
1522785,313,65
1522793,296,65
1522805,321,65
1522811,303,65
1522827,300,65
1522834,320,65
1522845,296,65
1522857,317,65
1522860,311,65
1522876,298,65
1522888,325,65
1522894,299,65
1522909,314,65
1522919,322,65
1522926,302,65
1522939,329,65
1522945,312,65
1522960,314,65
1522970,330,65
1522977,305,65
1522985,329,65
1522994,324,65
1523010,310,65
1523021,335,65
1523027,311,65
1523042,323,65
1523052,331,65
1523060,310,65
1523073,337,65
1523082,321,65
1523093,321,65
1523094,342,65
1523113,317,65
1523113,340,65
1523128,334,65
1523144,324,65
1523154,353,65
1523160,331,65
1523175,341,65
1523185,347,65
1523194,316,65
1523207,344,65
1523210,329,65
1523226,325,65
1523236,343,65
1523246,315,65
1523258,336,65
1523260,334,65
1523277,320,65
1523287,345,65
1523294,321,65
1523294,331,65
1523320,342,65
1523327,321,65
1523340,362,65
1523345,431,66
1523359,508,66
1523370,444,66
1523377,258,66
1523391,324,66
1523401,327,66
1523410,308,66
1523421,336,66
1523432,315,66
1523441,326,66
1523446,337,66
1523461,314,66
1523473,342,66
1523477,328,66
1523493,324,66
1523503,350,66
1523510,326,66
1523510,350,66
1523528,352,66
1523544,345,66
1523556,376,66
1523561,364,66
1523576,383,66
1523585,404,66
1523593,385,66
1523593,406,66
1523611,374,66
1523627,344,66
1523637,349,66
1523646,311,66
1523658,323,66
1523667,320,66
1523676,303,66
1523689,327,66
1523699,308,66
1523709,316,66
1523720,333,66
1523727,306,66
1523739,329,66
1523750,320,66
1523760,312,66
1523771,334,66
1523778,309,66
1523778,328,66
1523801,329,66
1523810,309,66
1523822,339,66
1523827,319,66
1523834,325,66
1523853,339,66
1523860,313,66
1523873,337,66
1523884,327,66
1523893,320,66
1523893,344,66
1523911,320,66
1523925,336,66
1523935,337,66
1523943,319,66
1523946,345,66
1523960,323,66
1523976,327,66
1523986,339,66
1523996,314,66
1524005,339,66
1524017,332,66
1524027,321,66
1524038,346,66
1524046,321,66
1524046,334,66
1524067,341,66
1524077,322,66
1524089,347,66
1524099,332,66
1524109,330,66
1524120,347,66
1524127,328,66
1524140,352,66
1524146,344,66
1524160,332,66
1524171,346,66
1524181,323,66
1524191,336,66
1524202,338,66
1524210,319,66
1524222,346,66
1524233,328,66
1524243,328,66
1524246,345,66
1524260,318,66
1524260,339,66
1524277,333,66
1524293,324,66
1524304,346,66
1524314,337,66
1524325,400,66
1524332,521,65
1524344,466,65
1524356,314,65
1524361,287,65
1524376,326,65
1524386,337,65
1524394,314,65
1524407,334,65
1524410,328,65
1524427,316,65
1524438,341,65
1524447,318,65
1524458,332,65
1524468,339,65
1524477,321,65
1524489,349,65
1524500,337,65
1524510,340,65
1524520,362,65
1524527,342,65
1524527,372,65
1524551,375,65
1524560,372,65
1524560,402,65
1524576,381,65
1524592,380,65
1524603,365,65
1524611,322,65
1524623,333,65
1524633,305,65
1524643,300,65
1524653,318,65
1524661,291,65
1524675,313,65
1524684,308,65
1524693,297,65
1524704,323,65
1524710,298,65
1524710,307,65
1524736,317,65
1524743,295,65
1524756,319,65
1524766,305,65
1524777,301,65
1524787,318,65
1524794,294,65
1524808,315,65
1524811,313,65
1524828,298,65
1524837,325,65
1524847,302,65
1524858,311,65
1524860,323,65
1524876,300,65
1524890,325,65
1524894,310,65
1524909,306,65
1524920,329,65
1524927,301,65
1524941,322,65
1524947,319,65
1524960,305,65
1524972,331,65
1524977,307,65
1524992,317,65
1525003,328,65
1525010,304,65
1525023,330,65
1525027,316,65
1525043,313,65
1525054,334,65
1525060,307,65
1525060,325,65
1525077,323,65
1525093,305,65
1525106,332,65
1525111,311,65
1525111,320,65
1525128,336,65
1525144,318,65
1525147,343,65
1525160,333,65
1525177,321,65
1525187,333,65
1525194,306,65
1525209,324,65
1525211,323,65
1525226,307,65
1525238,332,65
1525247,312,65
1525259,319,65
1525269,332,65
1525277,310,65
1525289,337,65
1525300,326,65
1525310,317,65
1525310,340,65
1525327,330,65
1525336,429,64
1525347,538,64
1525360,458,64
1525360,282,64
1525382,300,64
1525392,323,64
1525403,330,64
1525411,305,64
1525411,332,64
1525433,324,64
1525444,317,64
1525447,342,64
1525461,317,64
1525461,335,64
1525477,341,64
1525494,323,64
1525494,354,64
1525511,338,64
1525526,351,64
1525535,372,64
1525544,352,64
1525557,387,64
1525568,386,64
1525577,382,64
1525585,414,64
1525594,387,64
1525594,393,64
1525611,372,64
1525627,327,64
1525638,339,64
1525647,312,64
1525660,309,64
1525661,324,64
1525677,298,64
1525690,322,64
1525693,314,64
1525710,304,64
1525721,329,64
1525727,304,64
1525741,319,64
1525748,324,64
1525760,306,64
1525773,330,64
1525783,312,64
1525793,315,64
1525795,333,64
1525811,308,64
1525811,331,64
1525827,324,64
1525844,314,64
1525848,340,64
1525861,317,64
1525861,327,64
1525885,334,64
1525893,314,64
1525893,339,64
1525916,322,64
1525926,321,64
1525935,340,64
1525944,315,64
1525948,337,64
1525960,329,64
1525977,320,64
1525988,344,64
1525993,322,64
1526008,334,64
1526019,341,64
1526027,320,64
1526039,343,64
1526049,327,64
1526060,329,64
1526070,346,64
1526080,322,64
1526091,342,64
1526101,339,64
1526110,327,64
1526121,354,64
1526127,338,64
1526142,350,64
1526152,359,64
1526160,328,64
1526173,344,64
1526183,331,64
1526193,329,64
1526204,349,64
1526210,320,64
1526224,339,64
1526234,336,64
1526244,321,64
1526255,348,64
1526265,327,64
1526275,337,64
1526286,345,64
1526294,322,64
1526307,352,64
1526310,355,64
1526326,445,64
1526336,539,64
1526344,412,64
1526357,275,64
1526360,338,64
1526377,319,64
1526388,344,64
1526394,324,64
1526410,332,64
1526419,343,64
1526427,321,64
1526440,349,64
1526449,337,64
1526460,335,64
1526464,358,64
1526477,332,64
1526491,356,64
1526501,359,64
1526509,345,64
1526522,377,64
1526527,363,64
1526543,379,64
1526553,397,64
1526560,382,64
1526573,414,64
1526584,398,64
1526593,374,64
1526605,371,64
1526610,329,64
1526625,330,64
1526635,324,64
1526644,302,64
1526649,328,64
1526660,308,64
1526676,311,64
1526686,323,64
1526693,301,64
1526707,327,64
1526717,313,64
1526727,305,64
1526735,328,64
1526743,305,64
1526759,324,64
1526767,324,64
1526777,308,64
1526789,335,64
1526794,314,64
1526810,319,64
1526820,336,64
1526827,311,64
1526840,335,64
1526849,325,64
1526860,315,64
1526860,337,64
1526876,310,64
1526892,329,64
1526893,330,64
1526910,309,64
1526923,339,64
1526933,321,64
1526943,325,64
1526953,339,64
1526960,315,64
1526974,339,64
1526984,331,64
1526994,325,64
1527004,350,64
1527010,320,64
1527010,337,64
1527028,346,64
1527044,331,64
1527056,357,64
1527061,333,64
1527077,329,64
1527078,345,64
1527094,321,64
1527107,343,64
1527118,334,64
1527127,324,64
1527136,351,64
1527144,325,64
1527149,339,64
1527168,348,64
1527178,326,64
1527189,354,64
1527200,335,64
1527210,350,64
1527220,393,64
1527227,466,65
1527233,471,65
1527249,351,65
1527259,288,65
1527259,359,65
1527281,323,65
1527290,341,65
1527301,348,65
1527305,329,65
1527322,360,65
1527333,345,65
1527339,343,65
1527353,363,65
1527364,340,65
1527372,365,65
1527384,359,65
1527395,351,65
1527405,377,65
1527415,359,65
1527425,380,65
1527436,395,65
1527439,382,65
1527455,418,65
1527455,408,65
1527472,405,65
1527487,410,65
1527497,361,65
1527506,361,65
1527506,338,65
1527523,315,65
1527538,333,65
1527549,307,65
1527555,320,65
1527568,322,65
1527580,303,65
1527589,328,65
1527589,310,65
1527610,308,65
1527620,329,65
1527631,298,65
1527639,322,65
1527651,317,65
1527661,305,65
1527671,329,65
1527682,308,65
1527689,316,65
1527689,324,65
1527712,303,65
1527721,326,65
1527731,310,65
1527743,309,65
1527754,324,65
1527755,297,65
1527773,318,65
1527785,314,65
1527789,297,65
1527805,323,65
1527815,297,65
1527821,308,65
1527835,321,65
1527846,293,65
1527855,326,65
1527867,312,65
1527872,310,65
1527887,333,65
1527890,297,65
1527905,308,65
1527905,308,65
1527929,295,65
1527939,320,65
1527949,298,65
1527955,307,65
1527969,318,65
1527980,294,65
1527988,320,65
1528000,308,65
1528006,306,65
1528006,323,65
1528023,303,65
1528039,337,65
1528051,365,65
1528062,438,66
1528072,408,66
1528081,279,66
1528088,284,66
1528088,329,66
1528113,293,66
1528123,324,66
1528130,313,66
1528139,308,66
1528154,334,66
1528164,304,66
1528171,324,66
1528185,327,66
1528195,308,66
1528205,338,66
1528216,320,66
1528226,328,66
1528237,346,66
1528246,328,66
1528256,361,66
1528256,361,66
1528273,360,66
1528288,389,66
1528299,370,66
1528308,384,66
1528318,368,66
1528329,326,66
1528339,332,66
1528349,295,66
1528355,288,66
1528370,304,66
1528372,272,66
1528389,301,66
1528401,288,66
1528405,280,66
1528420,303,66
1528429,278,66
1528439,293,66
1528452,297,66
1528463,279,66
1528472,308,66
1528482,291,66
1528493,297,66
1528503,313,66
1528514,288,66
1528522,312,66
1528535,301,66
1528539,296,66
1528555,319,66
1528565,296,66
1528572,308,66
1528585,312,66
1528595,291,66
1528604,320,66
1528616,302,66
1528622,308,66
1528622,325,66
1528640,298,66
1528655,325,66
1528668,320,66
1528672,313,66
1528688,337,66
1528698,307,66
1528705,315,66
1528718,321,66
1528729,303,66
1528738,326,66
1528749,308,66
1528755,312,66
1528770,329,66
1528780,308,66
1528788,330,66
1528801,319,66
1528811,313,66
1528821,339,66
1528832,312,66
1528840,346,66
1528852,386,66
1528862,460,67
1528872,421,67
1528884,301,67
1528889,302,67
1528889,345,67
1528906,308,67
1528922,335,67
1528934,331,67
1528939,319,67
1528949,346,67
1528955,321,67
1528972,336,67
1528986,345,67
1528989,325,67
1529005,352,67
1529016,338,67
1529027,341,67
1529035,365,67
1529047,346,67
1529056,376,67
1529056,382,67
1529078,376,67
1529088,410,67
1529089,390,67
1529104,401,67
1529119,388,67
1529122,341,67
1529139,348,67
1529149,317,67
1529155,307,67
1529171,324,67
1529172,293,67
1529188,313,67
1529202,307,67
1529206,296,67
1529222,320,67
1529232,296,67
1529239,309,67
1529249,318,67
1529263,296,67
1529273,322,67
1529281,306,67
1529289,305,67
1529289,326,67
1529306,300,67
1529322,323,67
1529335,321,67
1529339,306,67
1529355,332,67
1529365,310,67
1529372,319,67
1529379,325,67
1529396,305,67
1529406,330,67
1529406,315,67
1529423,314,67
1529437,332,67
1529439,307,67
1529455,329,67
1529468,326,67
1529472,314,67
1529489,345,67
1529499,321,67
1529505,332,67
1529520,338,67
1529529,302,67
1529539,335,67
1529550,323,67
1529561,319,67
1529572,337,67
1529580,311,67
1529590,331,67
1529601,326,67
1529605,312,67
1529622,337,67
1529633,317,67
1529643,328,67
1529653,340,67
1529663,328,67
1529672,386,67
1529684,482,67
1529694,454,67
1529704,356,67
1529715,276,67
1529721,335,67
1529736,328,67
1529746,315,67
1529755,345,67
1529766,325,67
1529772,334,67
1529786,348,67
1529796,326,67
1529805,351,67
1529817,340,67
1529827,336,67
1529838,361,67
1529839,339,67
1529855,361,67
1529869,364,67
1529879,353,67
1529888,388,67
1529900,374,67
1529905,388,67
1529919,406,67
1529925,383,67
1529939,394,67
1529951,360,67
1529956,333,67
1529971,340,67
1529981,306,67
1529991,322,67
1530002,321,67
1530005,303,67
1530021,332,67
1530033,309,67
1530039,314,67
1530053,328,67
1530056,301,67
1530071,327,67
1530084,316,67
1530089,312,67
1530105,336,67
1530115,310,67
1530121,327,67
1530135,329,67
1530146,311,67
1530155,337,67
1530166,316,67
1530175,321,67
1530175,337,67
1530197,313,67
1530206,338,67
1530218,328,67
1530221,320,67
1530237,343,67
1530248,316,67
1530256,331,67
1530256,335,67
1530273,316,67
1530289,345,67
1530300,326,67
1530306,331,67
1530306,345,67
1530331,320,67
1530339,345,67
1530351,333,67
1530356,325,67
1530372,353,67
1530382,327,67
1530388,346,67
1530403,347,67
1530413,318,67
1530422,343,67
1530434,325,67
1530438,327,67
1530453,342,67
1530464,316,67
1530472,342,67
1530477,331,67
1530495,321,67
1530505,345,67
1530505,320,67
1530522,336,67
1530531,340,67
1530538,319,67
1530556,366,67
1530556,402,67
1530572,509,67
1530587,475,67
1530588,296,67
1530605,318,67
1530605,334,67
1530628,320,67
1530638,343,67
1530648,319,67
1530655,334,67
1530669,341,67
1530680,322,67
1530688,350,67
1530700,332,67
1530705,336,67
1530705,351,67
1530722,330,67
1530739,355,67
1530752,352,67
1530762,347,67
1530772,379,67
1530782,361,67
1530788,384,67
1530803,399,67
1530813,381,67
1530822,407,67
1530834,373,67
1530844,351,67
1530854,349,67
1530864,310,67
1530872,325,67
1530872,314,67
1530895,300,67
1530906,325,67
1530916,302,67
1530922,314,67
1530937,321,67
1530947,302,67
1530955,330,67
1530967,313,67
1530972,314,67
1530988,331,67
1530998,306,67
1531005,328,67
1531018,322,67
1531029,309,67
1531039,336,67
1531049,312,67
1531056,324,67
1531056,334,67
1531072,312,67
1531089,340,67
1531100,322,67
1531106,323,67
1531121,340,67
1531131,314,67
1531139,338,67
1531151,332,67
1531162,318,67
1531172,344,67
1531182,321,67
1531188,334,67
1531203,341,67
1531205,318,67
1531222,343,67
1531234,328,67
1531244,326,67
1531254,347,67
1531265,320,67
1531272,342,67
1531285,338,67
1531295,324,67
1531305,348,67
1531316,322,67
1531322,333,67
1531337,342,67
1531347,322,67
1531355,347,67
1531368,335,67
1531378,338,67
1531388,358,67
1531389,333,67
1531405,351,67
1531418,336,67
1531422,322,67
1531438,351,67
1531449,327,67
1531455,336,67
1531470,343,67
1531480,319,67
1531488,343,67
1531501,328,67
1531505,325,67
1531521,347,67
1531532,321,67
1531538,340,67
1531551,340,67
1531556,344,67
1531571,453,65
1531583,515,65
1531589,446,65
1531589,281,65
1531606,309,65
1531624,343,65
1531634,323,65
1531638,320,65
1531655,344,65
1531665,318,65
1531672,338,65
1531686,338,65
1531689,323,65
1531705,350,65
1531717,329,65
1531726,338,65
1531737,350,65
1531747,330,65
1531756,359,65
1531756,350,65
1531778,354,65
1531789,385,65
1531799,368,65
1531806,393,65
1531806,398,65
1531823,380,65
1531840,390,65
1531840,345,65
1531856,334,65
1531870,332,65
1531880,301,65
1531889,321,65
1531901,307,65
1531911,300,65
1531922,325,65
1531932,301,65
1531938,318,65
1531953,317,65
1531963,301,65
1531972,327,65
1531983,306,65
1531988,315,65
1532004,328,65
1532006,304,65
1532022,328,65
1532035,317,65
1532046,309,65
1532055,331,65
1532065,305,65
1532071,324,65
1532086,324,65
1532097,306,65
1532105,333,65
1532117,313,65
1532123,319,65
1532138,332,65
1532147,309,65
1532156,334,65
1532168,324,65
1532178,315,65
1532189,338,65
1532199,310,65
1532205,328,65
1532219,330,65
1532230,313,65
1532239,338,65
1532250,316,65
1532256,323,65
1532256,336,65
1532273,311,65
1532289,336,65
1532302,326,65
1532312,321,65
1532322,343,65
1532332,317,65
1532343,334,65
1532353,336,65
1532363,316,65
1532373,341,65
1532376,321,65
1532389,330,65
1532405,342,65
1532405,319,65
1532423,343,65
1532435,331,65
1532439,324,65
1532455,347,65
1532466,328,65
1532472,347,65
1532487,351,65
1532490,325,65
1532505,345,65
1532517,322,65
1532523,326,65
1532531,340,65
1532549,313,65
1532556,337,65
1532556,329,65
1532574,319,65
1532589,343,65
1532589,316,65
1532605,333,65
1532620,337,65
1532631,318,65
1532639,344,65
1532650,341,65
1532656,412,64
1532656,536,64
1532682,451,64
1532689,304,64
1532702,315,64
1532705,321,64
1532722,340,64
1532733,317,64
1532739,334,64
1532753,338,64
1532755,318,64
1532772,346,64
1532784,329,64
1532789,333,64
1532805,349,64
1532815,323,64
1532822,352,64
1532835,346,64
1532846,339,64
1532855,370,64
1532866,354,64
1532877,377,64
1532877,389,64
1532897,375,64
1532906,408,64
1532906,394,64
1532922,384,64
1532937,375,64
1532948,329,64
1532955,341,64
1532968,322,64
1532979,309,64
1532988,331,64
1533000,303,64
1533006,316,64
1533006,320,64
1533030,300,64
1533039,328,64
1533039,310,64
1533061,308,64
1533071,328,64
1533081,299,64
1533088,324,64
1533102,318,64
1533106,310,64
1533123,335,64
1533134,311,64
1533139,321,64
1533153,331,64
1533164,309,64
1533172,334,64
1533184,316,64
1533195,318,64
1533205,335,64
1533206,311,64
1533222,332,64
1533236,326,64
1533246,316,64
1533255,341,64
1533266,314,64
1533277,329,64
1533286,335,64
1533298,311,64
1533305,337,64
1533318,321,64
1533328,318,64
1533338,336,64
1533349,309,64
1533355,333,64
1533369,325,64
1533379,311,64
1533389,339,64
1533400,315,64
1533405,325,64
1533420,331,64
1533431,312,64
1533439,338,64
1533439,322,64
1533462,326,64
1533472,348,64
1533482,322,64
1533488,342,64
1533503,330,64
1533513,312,64
1533522,340,64
1533534,313,64
1533543,322,64
1533554,331,64
1533564,309,64
1533571,335,64
1533584,323,64
1533595,320,64
1533605,339,64
1533615,312,64
1533621,331,64
1533636,332,64
1533647,329,64
1533656,392,64
1533667,468,64
1533672,427,64
1533688,324,64
1533697,287,64
1533705,344,64
1533718,320,64
1533728,319,64
1533738,338,64
1533738,318,64
1533755,337,64
1533770,336,64
1533779,322,64
1533788,351,64
1533794,330,64
1533811,341,64
1533821,355,64
1533831,334,64
1533839,365,64
1533852,352,64
1533862,357,64
1533872,386,64
1533876,371,64
1533888,398,64
1533904,404,64
1533905,387,64
1533922,404,64
1533934,359,64
1533943,342,64
1533954,336,64
1533964,300,64
1533972,318,64
1533985,305,64
1533988,297,64
1534006,320,64
1534015,294,64
1534025,314,64
1534037,311,64
1534039,298,64
1534056,322,64
1534067,301,64
1534075,310,64
1534088,323,64
1534089,299,64
1534106,325,64
1534106,313,64
1534122,310,64
1534139,331,64
1534150,302,64
1534155,321,64
1534155,322,64
1534173,303,64
1534188,331,64
1534201,314,64
1534205,317,64
1534222,331,64
1534231,307,64
1534238,333,64
1534251,321,64
1534262,315,64
1534271,336,64
1534283,310,64
1534289,327,64
1534303,328,64
1534314,312,64
1534322,337,64
1534322,314,64
1534339,322,64
1534355,337,64
1534365,310,64
1534372,341,64
1534379,335,64
1534388,328,64
1534405,352,64
1534405,321,64
1534422,327,64
1534437,329,64
1534447,312,64
1534455,340,64
1534467,319,64
1534476,322,64
1534488,335,64
1534491,311,64
1534505,339,64
1534520,328,64
1534529,320,64
1534539,349,64
1534551,321,64
1534556,347,64
1534571,366,64
1534577,433,64
1534588,477,64
1534588,351,64
1534605,282,64
1534621,349,64
1534633,311,64
1534638,340,64
1534652,333,64
1534663,325,64
1534672,349,64
1534683,323,64
1534694,341,64
1534704,346,64
1534714,329,64
1534722,360,64
1534735,339,64
1534740,347,64
1534755,364,64
1534765,345,64
1534772,372,64
1534785,372,64
1534789,373,64
1534805,407,64
1534817,389,64
1534827,403,64
1534837,401,64
1534839,358,64
1534855,359,64
1534868,320,64
1534878,313,64
1534888,322,64
1534898,291,64
1534905,314,64
1534905,309,64
1534930,300,64
1534938,323,64
1534950,297,64
1534961,309,64
1534971,315,64
1534981,295,64
1534989,324,64
1535002,307,64
1535005,311,64
1535022,325,64
1535022,304,64
1535039,326,64
1535048,320,64
1535056,309,64
1535072,333,64
1535082,307,64
1535088,320,64
1535104,325,64
1535106,301,64
1535122,330,64
1535130,315,64
1535139,315,64
1535156,332,64
1535156,306,64
1535172,328,64
1535187,323,64
1535197,312,64
1535206,338,64
1535206,316,64
1535223,329,64
1535237,335,64
1535249,318,64
1535255,348,64
1535255,334,64
1535273,329,64
1535289,338,64
1535300,309,64
1535305,333,64
1535320,327,64
1535328,314,64
1535338,341,64
1535338,315,64
1535354,326,64
1535371,334,64
1535381,314,64
1535391,340,64
1535398,325,64
1535398,324,64
1535423,345,64
1535431,334,64
1535439,418,65
1535448,503,65
1535463,400,65
1535464,304,65
1535480,309,65
1535489,331,65
1535498,339,65
1535514,317,65
1535525,344,65
1535531,327,65
1535546,327,65
1535555,349,65
1535565,324,65
1535577,343,65
1535581,341,65
1535597,330,65
1535607,358,65
1535614,339,65
1535628,351,65
1535638,365,65
1535648,351,65
1535659,389,65
1535664,379,65
1535664,383,65
1535681,410,65
1535697,381,65
1535710,382,65
1535720,358,65
1535730,325,65
1535741,337,65
1535747,307,65
1535760,311,65
1535765,318,65
1535781,298,65
1535793,322,65
1535798,304,65
1535813,302,65
1535822,323,65
1535831,297,65
1535843,317,65
1535853,318,65
1535864,301,65
1535874,325,65
1535882,301,65
1535895,313,65
1535905,324,65
1535915,301,65
1535915,328,65
1535932,314,65
1535946,308,65
1535956,330,65
1535964,307,65
1535976,327,65
1535981,323,65
1535997,306,65
1536007,334,65
1536014,311,65
1536014,322,65
1536038,335,65
1536047,310,65
1536058,335,65
1536064,321,65
1536079,318,65
1536089,341,65
1536098,314,65
1536098,332,65
1536114,334,65
1536131,317,65
1536141,345,65
1536147,329,65
1536157,338,65
1536165,351,65
1536182,326,65
1536193,343,65
1536197,327,65
1536213,325,65
1536215,347,65
1536231,322,65
1536244,338,65
1536254,336,65
1536264,320,65
1536275,346,65
1536281,325,65
1536295,328,65
1536306,342,65
1536314,317,65
1536325,344,65
1536336,349,65
1536346,407,65
1536357,524,65
1536364,430,65
1536377,292,65
1536381,319,65
1536398,317,65
1536407,340,65
1536414,320,65
1536428,326,65
1536439,342,65
1536448,316,65
1536459,342,65
1536464,332,65
1536480,326,65
1536490,349,65
1536498,324,65
1536510,345,65
1536521,352,65
1536531,339,65
1536542,370,65
1536548,356,65
1536555,370,65
1536565,393,65
1536581,376,65
1536593,403,65
1536598,394,65
1536613,373,65
1536613,372,65
1536631,326,65
1536639,326,65
1536648,321,65
1536664,298,65
1536675,322,65
1536681,303,65
1536696,307,65
1536706,322,65
1536715,298,65
1536726,324,65
1536731,314,65
1536746,304,65
1536757,329,65
1536765,304,65
1536765,320,65
1536787,324,65
1536798,305,65
1536798,333,65
1536815,314,65
1536815,315,65
1536835,332,65
1536847,309,65
1536860,332,65
1536864,323,65
1536881,313,65
1536891,339,65
1536897,316,65
1536911,329,65
1536921,334,65
1536930,311,65
1536941,340,65
1536948,321,65
1536962,324,65
1536973,340,65
1536983,314,65
1536993,338,65
1537003,331,65
1537014,320,65
1537023,344,65
1537031,322,65
1537044,334,65
1537048,340,65
1537064,320,65
1537064,346,65
1537080,327,65
1537095,329,65
1537106,346,65
1537114,318,65
1537114,346,65
1537132,338,65
1537148,328,65
1537158,356,65
1537164,324,65
1537164,329,65
1537188,338,65
1537198,319,65
1537208,342,65
1537214,324,65
1537229,324,65
1537239,343,65
1537247,316,65
1537259,337,65
1537265,330,65
1537280,318,65
1537291,345,65
1537297,320,65
1537311,349,65
1537321,403,64
1537330,496,64
1537342,492,64
1537352,314,64
1537363,284,64
1537364,342,64
1537380,310,64
1537393,334,64
1537398,330,64
1537414,317,64
1537424,343,64
1537431,318,64
1537445,332,64
1537454,342,64
1537464,319,64
1537475,348,64
1537481,336,64
1537496,336,64
1537498,360,64
1537514,339,64
1537527,366,64
1537531,370,64
1537547,365,64
1537556,402,64
1537564,387,64
1537564,400,64
1537580,400,64
1537598,355,64
1537609,358,64
1537615,326,64
1537615,313,64
1537640,326,64
1537648,298,64
1537661,318,64
1537665,318,64
1537681,302,64
1537690,328,64
1537698,305,64
1537712,315,64
1537714,324,64
1537731,301,64
1537740,326,64
1537747,312,64
1537763,309,64
1537774,331,64
1537781,305,64
1537793,325,64
1537804,321,64
1537814,308,64
1537825,333,64
1537831,311,64
1537835,320,64
1537856,331,64
1537865,306,64
1537876,331,64
1537886,317,64
1537897,312,64
1537907,333,64
1537914,309,64
1537914,329,64
1537931,327,64
1537948,313,64
1537956,340,64
1537965,319,64
1537965,327,64
1537989,339,64
1537997,315,64
1537997,339,64
1538015,326,64
1538030,319,64
1538031,341,64
1538047,315,64
1538057,333,64
1538071,333,64
1538080,316,64
1538092,343,64
1538102,321,64
1538112,327,64
1538122,347,64
1538130,324,64
1538143,350,64
1538147,336,64
1538163,322,64
1538174,338,64
1538181,315,64
1538194,330,64
1538204,334,64
1538213,313,64
1538225,341,64
1538235,320,64
1538246,325,64
1538248,340,64
1538265,315,64
1538277,338,64
1538286,330,64
1538297,319,64
1538307,357,64
1538314,389,64
1538327,519,63
1538335,476,63
1538348,276,63
1538358,305,63
1538364,318,63
1538379,312,63
1538389,330,63
1538397,306,63
1538397,331,63
1538420,322,63
1538431,314,63
1538440,340,63
1538448,313,63
1538457,332,63
1538464,337,63
1538482,320,63
1538492,348,63
1538499,334,63
1538513,344,63
1538523,366,63
1538531,351,63
1538543,384,63
1538554,385,63
1538564,382,63
1538574,407,63
1538582,371,63
1538582,363,63
1538599,345,63
1538614,308,63
1538626,326,63
1538631,299,63
