Timestamp,ECGValue,BPM
778450,338,68
778467,331,68
778478,327,68
778488,345,68
778499,325,68
778508,342,68
778519,340,68
778527,328,68
778540,352,68
778549,335,68
778560,344,68
778561,358,68
778578,343,68
778587,370,68
778593,367,68
778611,370,68
778622,398,68
778627,381,68
778643,402,68
778652,393,68
778661,358,68
778661,355,68
778677,320,68
778694,316,68
778704,318,68
778710,298,68
778725,318,68
778734,306,68
778744,302,68
778755,318,68
778765,295,68
778776,312,68
778786,310,68
778794,299,68
778794,321,68
778811,303,68
778827,311,68
778838,319,68
778846,305,68
778857,326,68
778862,314,68
778877,312,68
778888,329,68
778899,308,68
778909,324,68
778920,323,68
778930,311,68
778940,332,68
778950,314,68
778961,322,68
778971,330,68
778980,309,68
778991,333,68
778994,321,68
779011,320,68
779022,338,68
779032,317,68
779042,338,68
779053,340,68
779061,331,68
779074,350,68
779084,322,68
779094,330,68
779094,339,68
779109,320,68
779125,339,68
779135,326,68
779144,323,68
779156,338,68
779161,319,68
779176,338,68
779186,334,68
779194,323,68
779207,347,68
779217,327,68
779227,345,68
779238,421,68
779246,488,68
779258,434,68
779269,286,68
779277,307,68
779286,340,68
779293,314,68
779309,334,68
779320,332,68
779328,322,68
779340,345,68
779351,326,68
779360,335,68
779371,345,68
779377,329,68
779382,352,68
779395,343,68
779410,345,68
779423,367,68
779428,349,68
779436,375,68
779454,380,68
779461,374,68
779474,404,68
779484,383,68
779493,382,68
779506,368,68
779510,331,68
779526,342,68
779532,322,68
779543,315,68
779556,328,68
779566,307,68
779576,324,68
779585,323,68
779593,309,68
779608,331,68
779611,310,68
779627,318,68
779638,328,68
779647,308,68
779659,330,68
779669,319,68
779678,317,68
779690,334,68
779694,311,68
779710,329,68
779720,328,68
779730,317,68
779741,339,68
779747,319,68
779760,326,68
779771,336,68
779778,316,68
779778,340,68
779795,328,68
779811,325,68
779823,342,68
779828,321,68
779844,337,68
779853,334,68
779860,322,68
779874,344,68
779884,324,68
779894,332,68
779904,342,68
779911,321,68
779911,342,68
779927,333,68
779945,334,68
779947,353,68
779961,331,68
779977,346,68
779979,330,68
779994,321,68
780007,343,68
780011,323,68
780028,330,68
780039,339,68
780047,319,68
780047,339,68
780061,326,68
780077,326,68
780086,343,68
780093,320,68
780110,338,68
780121,338,68
780127,338,68
780141,454,67
780147,480,67
780160,399,67
780160,281,67
780177,312,67
780193,338,67
780194,322,67
780210,320,67
780223,338,67
780228,318,67
780243,335,67
780254,334,67
780261,324,67
780275,344,67
780284,326,67
780294,337,67
780305,347,67
780316,334,67
780326,359,67
780336,352,67
780344,358,67
780357,384,67
780367,370,67
780377,395,67
780387,389,67
780394,363,67
780394,364,67
780418,324,67
780427,322,67
780439,323,67
780448,301,67
780448,320,67
780461,306,67
780477,304,67
780490,323,67
780493,301,67
780511,316,67
780521,315,67
780527,301,67
780542,326,67
780548,305,67
780561,312,67
780573,318,67
780583,298,67
780593,321,67
780603,311,67
780610,309,67
780624,327,67
780634,307,67
780643,325,67
780654,321,67
780661,309,67
780661,333,67
780685,313,67
780694,321,67
780694,329,67
780716,311,67
780727,333,67
780737,320,67
780744,318,67
780757,333,67
780767,311,67
780776,330,67
780788,326,67
780794,315,67
780794,336,67
780811,315,67
780827,325,67
780839,333,67
780848,313,67
780848,335,67
780871,322,67
780878,320,67
780890,339,67
780896,317,67
780911,335,67
780911,332,67
780927,320,67
780937,343,67
780952,322,67
780961,334,67
780961,341,67
780978,320,67
780987,352,67
780994,340,67
781011,338,67
781025,353,67
781028,325,67
781044,335,67
781055,336,67
781061,322,67
781061,345,67
781086,324,67
781094,332,67
781106,339,67
781117,318,67
781127,341,67
781137,327,67
781144,325,67
781148,342,67
781161,319,67
781177,346,67
781189,369,67
781194,473,65
781209,500,65
781219,349,65
781227,274,65
781240,338,65
781250,313,65
781261,335,65
781270,324,65
781280,323,65
781280,340,65
781294,320,65
781311,338,65
781322,336,65
781327,326,65
781342,349,65
781352,331,65
781360,344,65
781373,356,65
781383,343,65
781394,371,65
781394,369,65
781410,378,65
781424,400,65
781428,384,65
781444,403,65
781455,381,65
781462,346,65
781476,348,65
781484,315,65
781493,316,65
781493,319,65
781509,300,65
781527,323,65
781537,309,65
781547,308,65
781555,323,65
781568,301,65
781579,319,65
781588,316,65
781599,306,65
781609,326,65
781620,306,65
781630,314,65
781637,322,65
781651,303,65
781661,327,65
781671,313,65
781681,314,65
781687,331,65
781702,309,65
781712,327,65
781721,323,65
781721,313,65
781738,333,65
781753,311,65
781763,322,65
781772,329,65
781784,310,65
781794,333,65
781804,320,65
781815,320,65
781823,336,65
781835,315,65
781845,332,65
781854,328,65
781866,319,65
781876,340,65
781887,320,65
781888,329,65
781904,336,65
781917,318,65
781921,341,65
781938,327,65
781938,327,65
781954,342,65
781969,320,65
781978,337,65
781987,334,65
781999,321,65
782005,345,65
782005,325,65
782022,331,65
782037,339,65
782049,323,65
782054,342,65
782071,331,65
782082,332,65
782088,346,65
782102,326,65
782112,341,65
782121,340,65
782132,337,65
782143,358,65
782153,340,65
782155,344,65
782171,341,65
782184,320,65
782188,342,65
782204,329,65
782215,329,65
782220,343,65
782235,322,65
782246,338,65
782254,335,65
782266,323,65
782277,345,65
782287,324,65
782297,335,65
782304,342,65
782318,335,65
782329,445,63
782338,523,63
782340,428,63
782354,280,63
782368,311,63
782376,336,63
782387,330,63
782400,322,63
782410,343,63
782420,326,63
782430,334,63
782437,343,63
782450,326,63
782462,349,63
782471,338,63
782482,340,63
782488,356,63
782488,340,63
782513,362,63
782520,367,63
782533,363,63
782538,393,63
782554,383,63
782564,397,63
782574,410,63
782584,383,63
782595,380,63
782604,346,63
782615,330,63
782621,335,63
782621,310,63
782646,325,63
782654,321,63
782667,307,63
782676,330,63
782687,308,63
782698,318,63
782704,324,63
782704,303,63
782729,326,63
782738,316,63
782749,315,63
782754,330,63
782769,309,63
782780,328,63
782787,323,63
782787,313,63
782804,334,63
782821,319,63
782831,326,63
782838,332,63
782851,314,63
782854,332,63
782871,320,63
782882,321,63
782888,338,63
782888,315,63
782904,331,63
782921,329,63
782934,315,63
782942,338,63
782954,317,63
782964,328,63
782970,333,63
782985,318,63
782996,340,63
783004,326,63
783015,325,63
783026,341,63
783036,320,63
783047,339,63
783055,334,63
783067,323,63
783071,343,63
783087,323,63
783097,332,63
783104,342,63
783104,322,63
783121,345,63
783137,339,63
783150,338,63
783154,353,63
783170,326,63
783180,335,63
783188,332,63
783188,322,63
783205,343,63
783221,321,63
783232,331,63
783238,335,63
783252,316,63
783262,340,63
783270,326,63
783283,324,63
783293,341,63
783304,320,63
783305,338,63
783321,345,63
783333,397,63
783338,512,62
783354,390,62
783355,279,62
783370,330,62
783385,316,62
783395,337,62
783404,327,62
783416,324,62
783427,342,62
783427,322,62
783448,342,62
783454,341,62
783454,331,62
783471,355,62
783487,338,62
783498,348,62
783504,360,62
783519,344,62
783529,376,62
783537,372,62
783550,376,62
783555,406,62
783555,388,62
783581,406,62
783588,396,62
783600,359,62
783611,357,62
783620,320,62
783631,316,62
783638,318,62
783652,296,62
783663,319,62
783671,305,62
783684,304,62
783693,318,62
783704,297,62
783713,313,62
783721,309,62
783734,297,62
783738,322,62
783754,302,62
783765,313,62
783771,320,62
783778,302,62
783796,324,62
783805,315,62
783805,312,62
783827,329,62
783837,308,62
783838,321,62
783855,318,62
783868,310,62
783878,329,62
783888,310,62
783888,318,62
783904,327,62
783920,308,62
783921,330,62
783937,317,62
783950,316,62
783960,332,62
783971,309,62
783981,325,62
783987,328,62
784001,316,62
784012,336,62
784021,322,62
784033,334,62
784039,342,62
784053,321,62
784062,335,62
784070,315,62
784083,314,62
784088,334,62
784104,311,62
784105,326,62
784121,326,62
784135,311,62
784138,335,62
784154,315,62
784154,324,62
784173,334,62
784186,313,62
784197,337,62
784204,337,62
784204,352,62
784221,456,63
784238,417,63
784248,332,63
784254,295,63
784268,321,63
784278,334,63
784287,319,63
784299,327,63
784309,337,63
784320,320,63
784330,343,63
784338,333,63
784351,330,63
784361,350,63
784371,330,63
784381,347,63
784388,351,63
784402,343,63
784412,371,63
784421,361,63
784433,378,63
784438,396,63
784453,384,63
784463,411,63
784471,395,63
784484,371,63
784495,363,63
784504,323,63
784515,326,63
784522,320,63
784535,303,63
784545,324,63
784555,304,63
784566,311,63
784571,321,63
784587,299,63
784588,320,63
784604,310,63
784617,306,63
784622,320,63
784637,300,63
784648,320,63
784654,318,63
784668,307,63
784679,331,63
784688,310,63
784688,319,63
784704,330,63
784720,307,63
784730,328,63
784739,317,63
784739,313,63
784754,334,63
784770,311,63
784782,325,63
784788,325,63
784788,309,63
784805,332,63
784821,316,63
784833,323,63
784837,333,63
784853,317,63
784864,344,63
784872,335,63
784884,330,63
784888,344,63
784904,311,63
784904,330,63
784921,329,63
784935,315,63
784938,337,63
784955,318,63
784955,325,63
784972,337,63
784986,317,63
784990,339,63
785005,331,63
785008,328,63
785020,345,63
785038,338,63
785048,381,63
785055,484,64
785055,423,64
785079,343,64
785088,296,64
785088,336,64
785105,344,64
785121,327,64
785131,347,64
785137,339,64
785151,337,64
785161,356,64
785171,336,64
785182,353,64
785190,355,64
785202,342,64
785212,368,64
785221,354,64
785233,365,64
785238,381,64
785254,368,64
785263,400,64
785271,397,64
785271,399,64
785295,422,64
785304,393,64
785304,387,64
785321,364,64
785329,335,64
785346,344,64
785354,320,64
785366,325,64
785372,334,64
785387,317,64
785387,336,64
785405,325,64
785418,321,64
785427,341,64
785438,317,64
785438,332,64
785454,331,64
785469,318,64
785480,342,64
785489,325,64
785499,332,64
785504,344,64
785522,322,64
785531,345,64
785538,333,64
785551,328,64
785562,346,64
785571,323,64
785582,339,64
785587,338,64
785603,324,64
785604,347,64
785621,329,64
785631,335,64
785639,345,64
785654,323,64
785655,344,64
785671,335,64
785681,331,64
785695,348,64
785704,327,64
785704,346,64
785721,348,64
785735,334,64
785747,355,64
785755,332,64
785755,330,64
785771,343,64
785787,322,64
785798,344,64
785804,330,64
785818,326,64
785828,345,64
785837,324,64
785850,337,64
785856,338,64
785870,323,64
785878,346,64
785887,329,64
785887,346,64
785911,402,65
785921,481,65
785931,435,65
785937,302,65
785952,293,65
785962,339,65
785972,315,65
785983,330,65
785988,333,65
786004,317,65
786013,342,65
786021,326,65
786034,332,65
786039,343,65
786054,322,65
786065,343,65
786071,337,65
786071,331,65
786088,355,65
786104,340,65
786116,362,65
786121,372,65
786136,366,65
786140,395,65
786155,380,65
786167,379,65
786177,368,65
786188,326,65
786199,331,65
786205,313,65
786205,301,65
786222,317,65
786238,296,65
786249,310,65
786255,310,65
786270,295,65
786280,317,65
786288,300,65
786288,305,65
786304,316,65
786321,295,65
786332,316,65
786341,306,65
786352,301,65
786362,321,65
786370,299,65
786383,314,65
786393,317,65
786404,302,65
786413,325,65
786421,309,65
786434,313,65
786439,325,65
786454,304,65
786455,326,65
786472,316,65
786482,312,65
786488,330,65
786505,309,65
786517,323,65
786521,325,65
786537,309,65
786538,332,65
786555,315,65
786568,319,65
786571,330,65
786588,310,65
786588,332,65
786604,323,65
786618,317,65
786629,335,65
786638,316,65
786651,337,65
786655,337,65
786671,322,65
786679,343,65
786689,316,65
786701,320,65
786704,333,65
786721,311,65
786730,329,65
786738,323,65
786738,315,65
786763,334,65
786771,313,65
786784,326,65
786794,328,65
786804,313,65
786815,336,65
786821,324,65
786827,339,65
786836,439,65
786852,477,65
786856,407,65
786869,260,65
786886,307,65
786896,331,65
786905,306,65
786916,323,65
786927,327,65
786933,311,65
786948,335,65
786957,319,65
786965,323,65
786965,338,65
786983,318,65
786998,339,65
787009,333,65
787015,330,65
787030,353,65
787040,338,65
787048,362,65
787060,372,65
787066,365,65
787082,396,65
787083,381,65
787098,372,65
787098,364,65
787115,322,65
787132,327,65
787142,311,65
787149,300,65
787164,317,65
787173,295,65
787182,311,65
787194,314,65
787198,299,65
787214,322,65
787215,304,65
787233,307,65
787242,317,65
787256,295,65
787266,316,65
787276,309,65
787282,300,65
787297,322,65
787307,301,65
787315,314,65
787327,318,65
787338,303,65
787347,327,65
787358,312,65
787365,315,65
787379,327,65
787384,306,65
787398,326,65
787410,316,65
787415,312,65
787425,331,65
787431,311,65
787449,325,65
787461,326,65
787466,309,65
787482,332,65
787488,314,65
787498,318,65
787512,334,65
787522,312,65
787531,331,65
787543,322,65
787554,314,65
787563,334,65
787574,314,65
787581,327,65
787595,331,65
787605,314,65
787615,336,65
787615,320,65
787632,329,65
787645,346,65
787656,325,65
787665,347,65
787665,334,65
787684,315,65
787697,338,65
787707,315,65
787715,329,65
787728,331,65
787738,315,65
787748,337,65
787759,320,65
787766,323,65
787779,338,65
787787,317,65
787798,337,65
787810,330,65
787820,323,65
787831,357,65
787840,433,63
787848,518,63
787861,415,63
787865,245,63
787882,333,63
787892,319,63
787899,320,63
787912,336,63
787917,314,63
787933,336,63
787943,331,63
787949,324,63
787956,344,63
787975,324,63
787982,337,63
787982,344,63
787999,330,63
788015,356,63
788016,345,63
788032,356,63
788040,377,63
788056,367,63
788065,396,63
788077,395,63
788082,389,63
788098,399,63
788108,354,63
788116,346,63
788116,334,63
788139,306,63
788148,323,63
788159,306,63
788166,309,63
788179,322,63
788190,299,63
788198,320,63
788210,313,63
788220,304,63
788231,324,63
788241,303,63
788249,316,63
788262,320,63
788266,303,63
788282,326,63
788292,311,63
788299,314,63
788299,327,63
788323,307,63
788332,327,63
788332,321,63
788348,313,63
788364,334,63
788374,313,63
788382,326,63
788395,330,63
788399,312,63
788415,339,63
788426,322,63
788433,324,63
788446,339,63
788457,317,63
788466,336,63
788477,329,63
788482,321,63
788498,341,63
788508,318,63
788516,331,63
788516,337,63
788533,319,63
788549,343,63
788560,327,63
788565,329,63
788580,343,63
788590,321,63
788600,340,63
788610,335,63
788615,324,63
788630,348,63
788641,326,63
788649,339,63
788662,343,63
788666,325,63
788682,357,63
788692,343,63
788698,343,63
788713,355,63
788724,324,63
788732,338,63
788744,334,63
788749,324,63
788765,343,63
788775,323,63
788782,334,63
788796,340,63
788807,321,63
788815,345,63
788826,330,63
788834,332,63
788846,347,63
788857,323,63
788865,358,63
788878,411,62
788884,512,62
788898,469,62
788908,279,62
788915,311,62
788929,342,62
788933,318,62
788949,344,62
788960,329,62
788966,332,62
788980,348,62
788990,327,62
788999,347,62
789011,343,62
789016,335,62
789030,358,62
789041,341,62
789048,356,62
789062,366,62
789073,354,62
789082,384,62
789093,378,62
789103,388,62
789113,409,62
789124,392,62
789132,407,62
789144,382,62
789148,350,62
789164,356,62
789175,324,62
789182,327,62
789196,328,62
789199,309,62
789215,331,62
789227,315,62
789237,316,62
789247,332,62
789256,309,62
789266,327,62
789277,323,62
789287,311,62
789298,332,62
789299,312,62
789316,323,62
789329,333,62
789339,315,62
789349,337,62
789360,323,62
789366,323,62
789381,338,62
789390,318,62
789398,334,62
789398,330,62
789415,320,62
789431,341,62
789442,320,62
789448,333,62
789463,340,62
789473,321,62
789482,343,62
789494,329,62
789504,330,62
789514,344,62
789524,325,62
789534,341,62
789545,335,62
789548,326,62
789565,345,62
789575,324,62
789583,334,62
789583,340,62
789600,321,62
789617,342,62
789627,330,62
789637,329,62
789647,345,62
789658,324,62
789666,341,62
789666,342,62
789689,335,62
789699,356,62
789699,339,62
789716,338,62
789729,337,62
789740,320,62
789749,341,62
789761,327,62
789766,329,62
789781,345,62
789782,321,62
789799,339,62
789812,335,62
789816,323,62
789832,346,62
789842,327,62
789850,335,62
789858,354,62
789873,352,62
789881,471,61
789894,468,61
789899,351,61
789915,295,61
789925,326,61
789933,330,61
789938,332,61
789953,319,61
789965,342,61
789976,325,61
789982,334,61
789997,343,61
789998,325,61
790016,350,61
790027,338,61
790038,341,61
790048,364,61
790058,344,61
790065,365,61
790065,372,61
790083,366,61
790099,399,61
790110,387,61
790115,400,61
790130,409,61
790139,374,61
790148,373,61
790161,339,61
790166,326,61
790182,332,61
790186,306,61
790200,322,61
790213,317,61
790222,305,61
790233,324,61
790233,307,61
790249,313,61
790264,321,61
790266,303,61
790282,324,61
790292,311,61
790299,311,61
790315,327,61
790325,305,61
790332,322,61
790332,320,61
790348,307,61
790366,332,61
790367,312,61
790383,321,61
790397,330,61
790407,311,61
790416,331,61
790428,321,61
790439,318,61
790449,333,61
790459,312,61
790465,331,61
790478,330,61
790489,316,61
790498,337,61
790510,319,61
790520,324,61
790531,338,61
790541,315,61
790549,338,61
790561,329,61
790565,326,61
790582,348,61
790592,325,61
790600,344,61
790613,338,61
790615,317,61
790631,334,61
790644,317,61
790649,325,61
790665,332,61
790674,312,61
790684,335,61
790695,321,61
790705,320,61
790715,339,61
790725,314,61
790732,332,61
790746,334,61
790756,323,61
790766,360,61
790777,378,61
790782,471,62
790797,399,62
790808,282,62
790815,328,62
790828,331,62
790833,321,62
790848,342,62
790859,323,62
790866,339,62
790880,339,62
790882,328,62
790899,349,62
790899,334,62
790916,341,62
790931,354,62
790941,334,62
790950,361,62
790959,358,62
790972,356,62
790982,385,62
790992,375,62
790998,400,62
791014,406,62
791023,395,62
791031,410,62
791044,367,62
791049,349,62
791064,341,62
791074,312,62
791083,324,62
791085,311,62
791099,308,62
791116,325,62
791125,301,62
791132,318,62
791146,318,62
791149,300,62
791165,323,62
791178,304,62
791183,313,62
791199,324,62
791208,303,62
791218,326,62
791227,317,62
791239,313,62
791249,332,62
791259,309,62
791266,324,62
791279,327,62
791290,310,62
791299,336,62
791311,314,62
791316,321,62
791331,331,62
791336,311,62
791348,333,62
791362,324,62
791372,320,62
791382,338,62
791393,312,62
791398,337,62
791413,340,62
791423,324,62
791432,346,62
791443,322,62
791449,322,62
791465,334,62
791475,311,62
791483,335,62
791486,322,62
791499,316,62
791516,335,62
791525,313,62
791532,327,62
791547,329,62
791550,317,62
791566,338,62
791566,320,62
791588,339,62
791598,389,62
791599,457,64
791616,399,64
791626,295,64
791639,304,64
791649,341,64
791659,313,64
791665,330,64
791680,334,64
791691,320,64
791698,344,64
791711,329,64
791721,332,64
791731,346,64
791735,327,64
791749,348,64
791762,342,64
791766,342,64
791782,368,64
791793,351,64
791799,374,64
791813,383,64
791824,379,64
791832,407,64
791845,394,64
791849,387,64
791865,375,64
791866,333,64
791882,338,64
791896,318,64
791899,306,64
791916,321,64
791925,300,64
791932,316,64
791948,316,64
791949,302,64
791966,323,64
791978,305,64
791982,311,64
791998,322,64
791999,300,64
792016,320,64
792029,314,64
792032,309,64
792049,330,64
792060,308,64
792070,324,64
792081,326,64
792091,311,64
792099,334,64
792099,314,64
792121,322,64
792132,332,64
792143,309,64
792149,332,64
792161,323,64
792166,315,64
792182,336,64
792193,316,64
792199,330,64
792214,331,64
792224,318,64
792232,345,64
792244,331,64
792255,334,64
792265,344,64
792276,312,64
792285,334,64
792297,326,64
792307,318,64
792316,338,64
792327,315,64
792333,328,64
792333,331,64
792358,314,64
792365,339,64
792378,321,64
792388,327,64
792396,340,64
792409,324,64
792416,364,64
792429,458,66
792432,451,66
792448,376,66
792460,270,66
792466,327,66
792466,329,66
792491,314,66
792499,338,66
792512,322,66
792523,327,66
792532,342,66
792543,320,66
792549,340,66
792563,334,66
792573,328,66
792582,350,66
792594,334,66
792599,349,66
792615,355,66
792625,348,66
792633,378,66
792633,371,66
792649,380,66
792666,398,66
792676,375,66
792682,380,66
792697,351,66
792700,325,66
792716,335,66
792727,306,66
792733,315,66
792748,320,66
792758,302,66
792766,324,66
792779,310,66
792789,310,66
792799,325,66
792809,302,66
792815,323,66
792830,316,66
792840,307,66
792848,327,66
792860,306,66
792866,321,66
792882,325,66
792892,308,66
792902,334,66
792913,317,66
792922,319,66
792933,333,66
792940,311,66
792948,330,66
792963,325,66
792966,316,66
792982,337,66
792994,315,66
792999,326,66
793015,332,66
793025,313,66
793032,335,66
793046,320,66
793049,322,66
793066,340,66
793075,316,66
793082,335,66
793096,333,66
793107,326,66
793116,348,66
793128,330,66
793133,336,66
793149,332,66
793151,317,66
793167,340,66
793175,324,66
793189,324,66
793199,339,66
793199,316,66
793216,336,66
793230,332,66
793241,323,66
793249,343,66
793261,323,66
793271,335,66
793282,350,66
793290,356,66
793300,479,66
793312,456,66
793323,355,66
793332,299,66
793344,324,66
793349,337,66
793364,332,66
793374,325,66
793383,348,66
793395,329,66
793405,343,66
793415,347,66
793426,330,66
793434,354,66
793446,343,66
793449,345,66
793465,361,66
793477,344,66
793483,368,66
793498,368,66
793507,369,66
793515,398,66
793528,385,66
793538,401,66
793548,405,66
793558,373,66
793565,373,66
793579,343,66
793589,331,66
793599,342,66
793610,318,66
793615,334,66
793615,330,66
793633,320,66
793649,342,66
793662,321,66
793666,334,66
793682,338,66
793692,321,66
793700,342,66
793700,328,66
793716,329,66
793732,345,66
793744,323,66
793751,342,66
793764,338,66
793767,327,66
793783,350,66
793795,329,66
793801,340,66
793815,347,66
793815,330,66
793832,352,66
793846,338,66
793857,336,66
793865,351,66
793877,330,66
793885,350,66
793898,346,66
793908,334,66
793916,355,66
793929,336,66
793935,346,66
793949,351,66
793959,332,66
793966,354,66
793980,340,66
793990,338,66
793999,353,66
794011,330,66
794021,349,66
794030,345,66
794041,331,66
794049,352,66
794061,331,66
794066,338,66
794082,345,66
794093,332,66
794099,354,66
794113,339,66
794124,336,66
794132,345,66
794144,315,66
794149,335,66
794165,332,66
794174,316,66
794185,338,66
794185,317,66
794206,322,66
794216,329,66
794225,309,66
794232,330,66
794232,316,66
794249,313,66
794265,328,66
794278,316,66
794282,369,66
794298,474,64
794308,431,64
794315,313,64
794330,262,64
794339,313,64
794350,312,64
794359,295,64
794366,315,64
794380,302,64
794388,300,64
794400,318,64
794411,297,64
794416,314,64
794432,312,64
794433,298,64
794448,321,64
794463,305,64
794466,316,64
794482,330,64
794483,313,64
794499,346,64
794514,343,64
794524,349,64
794532,371,64
794545,349,64
794555,351,64
794564,326,64
794575,294,64
794583,305,64
794596,277,64
794607,282,64
794616,289,64
794626,270,64
794634,295,64
794647,284,64
794657,281,64
794667,301,64
794667,278,64
794684,296,64
794698,295,64
794708,282,64
794717,306,64
794717,289,64
794740,297,64
794749,309,64
794760,289,64
794766,315,64
794766,305,64
794790,302,64
794799,323,64
794811,301,64
794822,320,64
794832,321,64
794842,310,64
794849,332,64
794863,314,64
794873,322,64
794882,334,64
794893,313,64
794899,336,64
794914,327,64
794924,322,64
794933,342,64
794933,322,64
794955,338,64
794965,338,64
794976,326,64
794982,350,64
794996,332,64
795006,338,64
795016,350,64
795027,329,64
795032,349,64
795047,339,64
795058,335,64
795066,356,64
795078,335,64
795088,349,64
795099,349,64
795109,341,64
795116,368,64
795130,353,64
795133,360,64
795149,361,64
795160,334,64
795165,356,64
795180,347,64
795192,339,64
795199,360,64
795212,335,64
795221,351,64
795232,353,64
795242,336,64
795249,360,64
795262,341,64
795273,348,64
795283,358,64
795294,345,64
795300,409,63
795315,518,63
795324,480,63
795333,340,63
795345,296,63
795355,353,63
795365,345,63
795366,331,63
795382,354,63
795392,337,63
795407,343,63
795416,355,63
795427,333,63
795433,356,63
795447,351,63
795458,343,63
795466,365,63
795478,348,63
795488,367,63
795499,375,63
795499,364,63
795516,397,63
795525,389,63
795540,401,63
795549,420,63
795549,396,63
795565,400,63
795581,367,63
795591,340,63
795599,346,63
795612,315,63
795622,327,63
795632,328,63
795643,310,63
795649,333,63
795663,318,63
795674,321,63
795683,334,63
795693,311,63
795704,331,63
795714,324,63
795716,318,63
795732,338,63
795746,315,63
795756,329,63
795766,333,63
795776,317,63
795783,338,63
795789,324,63
795807,328,63
795816,340,63
795828,316,63
795832,337,63
795848,329,63
795859,317,63
795866,340,63
795879,321,63
795890,334,63
795900,336,63
795900,321,63
795916,341,63
795926,324,63
795941,326,63
795949,340,63
795949,318,63
795966,336,63
795982,331,63
795992,322,63
795999,342,63
796012,321,63
796023,334,63
796033,338,63
796043,321,63
796049,344,63
796064,328,63
796074,332,63
796083,349,63
796095,331,63
796100,347,63
796116,332,63
796125,317,63
796133,343,63
796133,319,63
796156,330,63
796165,335,63
796177,319,63
796183,343,63
796189,326,63
796207,329,63
796216,345,63
796216,324,63
796238,343,63
796249,339,63
796250,342,63
796266,434,63
796266,510,63
796283,429,63
796299,284,63
796310,310,63
796316,346,63
796331,331,63
796341,333,63
796350,348,63
796361,329,63
796366,350,63
796382,346,63
796392,336,63
796400,359,63
796413,341,63
796416,355,63
796433,364,63
796443,350,63
796449,377,63
796464,369,63
796474,379,63
796482,402,63
796495,390,63
796505,413,63
796516,413,63
796516,395,63
796533,395,63
796542,351,63
796557,342,63
796566,338,63
796575,311,63
796584,332,63
796597,313,63
796608,310,63
796616,327,63
796629,301,63
796639,317,63
796649,314,63
796659,298,63
796667,317,63
796667,296,63
796682,304,63
796700,312,63
796710,290,63
796721,312,63
796732,300,63
796739,296,63
796750,313,63
796750,288,63
796772,304,63
796782,300,63
796793,287,63
796799,306,63
796813,286,63
796823,292,63
796833,302,63
796844,279,63
796850,299,63
796864,286,63
796875,283,63
796883,298,63
796885,271,63
796906,288,63
796916,284,63
796925,268,63
796933,292,63
796947,269,63
796957,277,63
796965,286,63
796977,264,63
796987,285,63
796998,264,63
797008,247,63
797016,269,63
797029,241,63
797039,259,63
797049,255,63
797060,239,63
797067,263,63
797067,244,63
797091,252,63
797100,263,63
797111,242,63
797116,267,63
797131,258,63
797142,268,63
797149,320,63
797162,394,63
797172,353,63
797182,242,63
797193,229,63
797199,288,63
797214,261,63
797216,275,63
797233,289,63
797244,272,63
797249,300,63
797265,294,63
797266,294,63
797283,318,63
797295,302,63
797306,321,63
797316,331,63
797326,319,63
797335,349,63
797335,341,63
797350,354,63
797367,379,63
797375,367,63
797383,399,63
797398,395,63
797408,385,63
797416,391,63
797429,341,63
797434,341,63
797449,328,63
797460,308,63
797466,330,63
797475,311,63
797483,313,63
797499,328,63
797499,304,63
797516,326,63
797532,317,63
797542,311,63
797549,330,63
797549,309,63
797567,322,63
797583,326,63
797593,311,63
797604,334,63
797614,316,63
797624,321,63
797632,333,63
797645,311,63
797655,331,63
797665,321,63
797676,313,63
797683,332,63
797696,313,63
797706,325,63
797716,326,63
797727,305,63
797733,331,63
797747,311,63
797758,316,63
797766,329,63
797766,303,63
797788,322,63
797799,315,63
797809,300,63
797816,320,63
797816,282,63
797833,274,63
797850,264,63
797860,227,63
797866,234,63
797881,211,63
797891,207,63
797899,215,63
797899,192,63
797916,211,63
797933,203,63
797942,187,63
797949,207,63
797962,181,63
797973,207,63
797983,234,63
797993,301,63
797999,287,63
798014,165,63
798025,159,63
798032,216,63
798046,180,63
798050,215,63
798066,213,63
798066,209,63
798083,240,63
798096,223,63
798107,243,63
798117,252,63
798127,243,63
798133,278,63
798139,270,63
798158,278,63
798166,308,63
798178,295,63
798189,328,63
798199,338,63
798200,339,63
798216,375,63
798230,364,63
798233,376,63
798249,366,63
798261,325,63
798266,339,63
798281,314,63
798291,312,63
798300,330,63
798300,310,63
798316,333,63
798332,332,63
798343,324,63
798349,348,63
798349,330,63
798370,344,63
798383,358,63
798394,337,63
798399,365,63
798415,356,63
798417,357,63
798433,376,63
798445,356,63
798455,376,63
798465,376,63
798477,365,63
798485,390,63
798497,367,63
798500,381,63
798516,388,63
798526,372,63
798538,396,63
798549,388,63
798558,385,63
798567,404,55
798567,385,55
798589,402,55
798599,403,55
798610,379,55
798616,400,55
798630,377,55
798640,384,55
798649,394,55
798661,372,55
798671,393,55
798681,383,55
798691,379,55
798699,399,55
798713,372,55
798722,390,55
798733,393,55
798733,373,55
798749,404,55
798763,396,55
798767,450,55
798782,541,55
798782,414,55
798800,347,55
798815,376,55
798825,376,55
798832,394,55
798846,368,55
798856,389,55
798866,386,55
798876,373,55
798883,400,55
798897,383,55
798907,392,55
798916,403,59
798928,378,59
798933,408,59
798949,400,59
798959,398,59
798967,425,59
798979,410,59
798988,432,59
798999,443,59
799010,427,59
799016,453,59
799016,423,59
799040,404,59
799049,394,59
799061,352,59
799067,366,59
799067,350,59
799093,340,59
799099,360,59
799113,336,59
799116,351,59
799133,349,59
799144,333,59
799149,357,59
799164,339,59
799167,341,59
799183,353,59
799193,331,59
799205,354,59
799215,343,59
799226,337,59
799232,360,59
799246,336,59
799250,349,59
799267,352,59
799277,333,59
799287,355,59
799298,336,59
799308,340,59
799316,354,59
799316,330,59
799332,355,59
799348,343,59
799349,334,59
799367,358,59
799380,335,59
799383,351,59
799399,356,59
799410,332,59
799416,346,59
799431,331,59
799438,333,59
799449,348,59
799461,323,59
799472,343,59
799482,335,59
799492,323,59
799499,349,59
799513,324,59
799523,338,59
799534,342,59
799544,321,59
799549,355,59
799564,367,59
799574,473,61
799582,454,61
799595,327,61
799600,302,61
799615,333,61
799626,318,61
799633,346,61
799633,324,61
799657,337,61
799666,344,61
799677,326,61
799683,354,61
799683,335,61
799700,338,61
799716,355,61
799728,335,61
799739,358,61
799749,354,61
799760,349,61
799767,382,61
799779,364,61
799788,385,61
799800,398,61
799800,380,61
799817,400,61
799826,367,61
799842,344,61
799850,347,61
799850,311,61
799867,326,61
799883,319,61
799893,305,61
799900,328,61
799914,307,61
799916,315,61
799933,323,61
799943,302,61
799949,327,61
799964,310,61
799975,310,61
799983,328,61
799996,303,61
800006,325,61
800016,321,61
800026,308,61
800034,335,61
800034,312,61
800049,322,61
800066,330,61
800078,309,61
800088,334,61
800098,317,61
800109,317,61
800116,334,61
800116,308,61
800134,329,61
800150,324,61
800160,311,61
800168,336,61
800176,313,61
800182,324,61
800200,331,61
800212,310,61
800216,342,61
800232,329,61
800242,327,61
800249,348,61
800263,317,61
800268,328,61
800282,328,61
800294,313,61
800300,337,61
800314,315,61
800324,324,61
800333,334,61
800333,312,61
800349,336,61
800365,324,61
800374,319,61
800384,339,61
800396,312,61
800400,341,61
800417,377,61
800427,463,62
800434,454,62
800447,320,62
800449,288,62
800467,333,62
800478,307,62
800483,333,62
800499,323,62
800499,320,62
800516,341,62
800530,315,62
800533,334,62
800550,334,62
800560,320,62
800569,347,62
800569,329,62
800592,338,62
800599,354,62
800611,336,62
800616,367,62
800632,365,62
800643,368,62
800649,395,62
800663,373,62
800672,386,62
800683,371,62
800693,333,62
800699,343,62
800714,311,62
800725,315,62
800733,326,62
800745,303,62
800750,326,62
800765,313,62
800776,307,62
800783,329,62
800796,305,62
800806,322,62
800816,324,62
800827,305,62
800832,328,62
800847,310,62
800858,317,62
800866,330,62
800878,306,62
800889,328,62
800899,319,62
800908,313,62
800916,336,62
800916,313,62
800940,329,62
800950,328,62
800950,312,62
800970,339,62
800981,319,62
800992,323,62
800999,338,62
800999,313,62
801021,339,62
801032,329,62
801043,320,62
801049,342,62
801063,318,62
801069,333,62
801083,336,62
801093,319,62
801099,343,62
801115,326,62
801125,328,62
801133,343,62
801133,320,62
801150,342,62
801165,333,62
801176,331,62
801182,354,62
801196,332,62
801207,344,62
801216,341,62
801227,316,62
801238,344,62
801238,325,62
801250,329,62
801266,343,62
801279,319,62
801289,340,62
801299,332,62
801310,321,62
801316,345,62
801330,323,62
801339,336,62
801349,339,62
801361,331,62
801370,402,61
801381,486,61
801391,434,61
801399,318,61
801413,289,61
801423,339,61
801432,326,61
801443,317,61
801450,340,61
801450,320,61
801470,333,61
801484,341,61
801495,322,61
801499,346,61
801515,333,61
801525,334,61
801533,353,61
801546,332,61
801549,356,61
801567,358,61
801570,353,61
801583,382,61
801596,369,61
801600,387,61
801616,401,61
801628,376,61
801634,386,61
801639,348,61
801658,332,61
801666,336,61
801675,305,61
801689,323,61
801699,317,61
801710,303,61
801716,327,61
801731,306,61
801741,315,61
801750,323,61
801750,303,61
801771,328,61
801782,311,61
801792,310,61
801800,328,61
801812,301,61
801816,320,61
801832,316,61
801844,302,61
801849,326,61
801864,305,61
801871,312,61
801884,320,61
801895,296,61
801900,319,61
801915,304,61
801926,301,61
801933,319,61
801946,292,61
801951,310,61
801966,309,61
801977,293,61
801986,318,61
801986,295,61
802008,302,61
802016,312,61
802029,289,61
802033,314,61
802049,299,61
802058,295,61
802067,317,61
802080,291,61
802088,308,61
802100,307,61
802100,290,61
802117,314,61
802131,292,61
802133,300,61
802149,312,61
802162,288,61
802171,312,61
802183,302,61
802192,296,61
802200,315,61
802213,298,61
802216,318,61
802232,319,61
802244,305,61
802250,324,61
802264,292,61
802275,301,61
802283,317,61
802294,292,61
802305,315,61
802316,304,61
802325,298,61
802333,319,61
802336,296,61
802350,314,61
802366,316,61
802378,300,61
802386,328,61
802398,315,61
802408,336,61
802417,458,60
802428,461,60
802439,367,60
802449,253,60
802459,311,60
802466,328,60
802480,302,60
802490,319,60
802500,324,60
802511,308,60
802516,334,60
802531,317,60
802533,324,60
802549,341,60
802549,319,60
802572,344,60
802582,339,60
802592,336,60
802599,363,60
802613,347,60
802616,369,60
802634,382,60
802644,373,60
802654,406,60
802664,390,60
802675,385,60
802683,379,60
802696,334,60
802705,342,60
802716,325,60
802726,311,60
802734,333,60
802747,312,60
802757,325,60
802766,330,60
802777,313,60
802783,340,60
802798,324,60
802809,325,60
802816,340,60
802829,318,60
802835,341,60
802850,336,60
802859,325,60
802866,350,60
802871,328,60
802891,341,60
802900,347,60
802911,328,60
802916,353,60
802932,335,60
802942,338,60
802950,353,60
802963,331,60
802973,352,60
802983,346,60
802993,337,60
803000,360,60
803014,338,60
803025,348,60
803034,357,60
803037,334,60
803050,358,60
803066,344,60
803071,343,60
803082,362,60
803082,337,60
803099,357,60
803117,353,60
803127,341,60
803133,362,60
803147,341,60
803157,350,60
803166,356,60
803177,336,60
803188,363,60
803198,349,60
803200,345,60
803216,368,60
803229,341,60
803240,364,60
803250,364,60
803260,351,60
803266,377,60
803281,348,60
803290,349,60
803299,358,60
803311,339,60
803316,359,60
803332,343,60
803342,341,60
803350,359,60
803350,332,60
803372,353,60
803383,351,60
803393,336,60
803400,361,60
803414,340,60
803424,356,60
803432,383,60
803440,463,59
803451,503,59
803465,373,59
803476,285,59
803483,358,59
803489,326,59
803499,346,59
803517,348,59
803520,332,59
803532,357,59
803547,337,59
803558,346,59
803566,358,59
803578,335,59
803588,362,59
803599,353,59
803599,350,59
803617,375,59
803625,355,59
803634,376,59
803650,387,59
803650,375,59
803666,409,59
803681,394,59
803683,401,59
803699,401,59
803699,356,59
803717,357,59
803725,334,59
803742,318,59
803750,335,59
803750,310,59
803773,323,59
803782,322,59
803793,308,59
803800,331,59
803815,313,59
803817,315,59
803834,330,59
803845,307,59
803856,331,59
803866,321,59
803876,314,59
803883,334,59
803897,313,59
803907,326,59
803916,325,59
803928,309,59
803936,336,59
803948,317,59
803958,321,59
803967,335,59
803972,310,59
803987,333,59
803999,324,59
804000,316,59
804017,338,59
804026,312,59
804034,331,59
804050,331,59
804061,314,59
804066,339,59
804076,321,59
804083,325,59
804101,337,59
804112,317,59
804122,339,59
804133,328,59
804144,323,59
804150,348,59
804164,326,59
804173,341,59
804183,335,59
804194,311,59
804205,337,59
804215,318,59
804225,323,59
804235,338,59
804246,313,59
804250,335,59
804267,327,59
804272,319,59
804283,340,59
804296,316,59
804301,329,59
804317,338,59
804325,331,59
804333,400,59
804333,471,59
804351,384,59
804366,295,59
804380,298,59
804389,335,59
804400,324,59
804400,318,59
804417,341,59
804430,318,59
804434,335,59
804449,339,59
804461,321,59
804467,351,59
804481,334,59
804489,339,59
804501,360,59
804501,339,59
804517,365,59
804533,365,59
804544,360,59
804550,394,59
804564,378,59
804572,396,59
804583,406,59
804595,379,59
804600,383,59
804615,344,59
804626,324,59
804633,331,59
804646,300,59
804656,315,59
804666,312,59
804677,300,59
804684,322,59
804684,299,59
804704,311,59
804716,319,59
804728,297,59
804739,323,59
804749,312,59
804750,308,59
804766,328,59
804780,305,59
804783,328,59
804799,326,59
804810,307,59
804816,335,59
804831,313,59
804842,322,59
804850,332,59
804862,308,59
804867,333,59
804872,318,59
804893,314,59
804900,335,59
804913,310,59
804917,330,59
804933,327,59
804943,314,59
804950,341,59
804964,320,59
804972,326,59
804983,340,59
804995,319,59
805000,345,59
805016,334,59
805025,324,59
805033,334,59
805046,313,59
805050,331,59
805066,330,59
805077,313,59
805083,338,59
805098,315,59
805108,324,59
805116,333,59
805128,314,59
805138,338,59
805138,325,59
805150,322,59
805167,360,59
805177,355,59
805190,459,60
805200,403,60
805211,298,60
805217,318,60
805217,329,60
805242,323,60
805250,341,60
805250,316,60
805267,344,60
805283,330,60
805293,326,60
805300,351,60
805313,328,60
805324,347,60
805334,349,60
805344,338,60
805350,364,60
805350,350,60
805373,364,60
805381,382,60
805381,369,60
805398,401,60
805416,395,60
805426,393,60
805436,411,60
805443,368,60
805457,360,60
805460,343,60
805477,312,60
805488,330,60
805494,306,60
805494,309,60
805519,323,60
805527,299,60
805536,324,60
805544,312,60
805560,305,60
805570,327,60
805577,302,60
805590,320,60
805601,320,60
805611,304,60
805611,332,60
805627,313,60
805642,319,60
805644,335,60
805662,309,60
805673,334,60
805683,322,60
805693,316,60
805703,336,60
805710,313,60
805724,327,60
805731,329,60
805743,313,60
805755,341,60
805761,322,60
805775,324,60
805785,341,60
805793,319,60
805806,344,60
805811,336,60
805826,321,60
805837,332,60
805844,315,60
805858,325,60
805868,330,60
805877,308,60
805888,336,60
805894,319,60
805894,320,60
805920,338,60
805926,312,60
805939,333,60
805950,330,60
805960,318,60
805970,355,60
805981,352,60
805991,449,61
806001,423,61
806010,309,61
806021,308,61
806028,331,61
806042,317,61
806053,342,61
806060,315,61
806073,340,61
806078,334,61
806094,325,61
806104,352,61
806111,330,61
806124,341,61
806134,352,61
806143,332,61
806155,363,61
806165,351,61
806175,357,61
806185,381,61
806193,367,61
806206,398,61
806217,398,61
806227,393,61
806237,411,61
806244,369,61
806244,359,61
806261,342,61
806277,310,61
806287,327,61
806294,310,61
806310,309,61
806319,325,61
806328,299,61
806340,322,61
806343,316,61
806360,303,61
806371,328,61
806377,305,61
806391,316,61
806401,323,61
806411,304,61
806422,329,61
806432,317,61
806442,314,61
806453,333,61
806460,311,61
806473,329,61
806484,323,61
806494,312,61
806504,335,61
806514,312,61
806525,322,61
806535,331,61
806543,308,61
806555,336,61
806561,324,61
806576,323,61
806586,338,61
806594,317,61
806607,341,61
806617,339,61
806627,325,61
806637,343,61
806644,312,61
806658,325,61
806669,335,61
806677,310,61
806677,339,61
806695,322,61
806709,320,61
806720,337,61
806727,311,61
806740,331,61
806744,327,61
806760,315,61
806771,341,61
806777,330,61
806791,361,61
806794,470,72
806810,428,72
806823,358,72
806829,283,72
806843,316,72
806843,332,72
806860,312,72
806873,329,72
806884,328,72
806894,314,72
806905,340,72
806910,319,72
806910,331,72
806927,343,72
806943,320,72
806955,347,72
806966,338,72
806977,336,72
806987,363,72
806994,343,72
807007,370,72
807011,377,72
807027,369,72
807038,397,72
807044,372,72
807058,364,72
807068,350,72
807076,311,72
807089,324,72
807100,307,72
807110,297,72
807111,316,72
807127,290,72
807142,309,72
807151,309,72
807161,293,72
807171,318,72
807177,300,72
807192,304,72
807202,316,72
807210,292,72
807223,317,72
807230,306,72
807243,300,72
807254,325,72
807260,297,72
807274,314,72
807284,317,72
807294,300,72
807294,324,72
807311,305,72
807325,309,72
807336,321,72
807344,297,72
807355,321,72
807360,311,72
807377,303,72
807387,329,72
807393,302,72
807408,318,72
807418,321,72
807427,300,72
807438,330,72
807449,313,72
807459,317,72
807468,331,72
807479,314,72
807489,338,72
807500,328,72
807511,322,72
807520,335,72
807528,305,72
807528,325,72
807544,326,72
807561,307,72
807572,331,72
807577,312,72
807593,317,72
807594,335,72
807610,309,72
807623,332,72
807627,323,72
807643,317,72
807654,338,72
807660,324,72
807674,389,72
807682,489,68
807694,419,68
807705,324,68
807710,289,68
807726,321,68
807728,331,68
807743,309,68
807757,331,68
807767,326,68
807777,317,68
807788,342,68
807794,319,68
807807,333,68
807818,340,68
807827,321,68
807831,350,68
807849,334,68
807859,342,68
807870,363,68
807876,345,68
807890,376,68
807900,377,68
807911,374,68
807921,400,68
807930,373,68
807942,368,68
807944,353,68
807961,318,68
807961,334,68
807982,310,68
807993,310,68
808003,326,68
808012,300,68
808023,323,68
808033,316,68
808043,305,68
808054,332,68
808060,307,68
808075,320,68
808085,326,68
808093,305,68
808093,330,68
808110,315,68
808127,315,68
808136,334,68
808143,308,68
808156,329,68
808160,324,68
808177,314,68
808185,337,68
808193,315,68
808208,327,68
808211,334,68
808228,312,68
808237,338,68
808244,324,68
808260,325,68
808269,343,68
808277,317,68
808286,338,68
808294,332,68
808311,320,68
808322,347,68
808327,323,68
808342,332,68
808352,339,68
808361,318,68
808361,344,68
808377,330,68
808393,328,68
808403,348,68
808410,321,68
808410,341,68
808428,337,68
808444,322,68
808444,347,68
808461,327,68
808476,336,68
808480,345,68
808494,324,68
808494,349,68
808516,334,68
808526,339,68
808536,358,68
808544,334,68
808557,353,68
808561,341,68
808577,323,68
808588,350,68
808594,328,68
808609,335,68
808611,342,68
808627,323,68
808639,346,68
808646,331,68
808659,329,68
808670,350,68
808678,325,68
808691,345,68
808700,341,68
808711,338,68
808721,400,68
808732,480,65
808742,461,65
808745,343,65
808761,284,65
808773,346,65
808782,326,65
808794,325,65
808804,344,65
808811,319,65
808824,339,65
808830,336,65
808845,323,65
808855,348,65
808861,328,65
808876,338,65
808885,348,65
808893,328,65
808906,355,65
808910,348,65
808927,351,65
808931,379,65
808944,364,65
808958,389,65
808961,395,65
808977,379,65
808982,392,65
808993,349,65
808993,338,65
809010,336,65
809027,306,65
809036,328,65
809044,315,65
809060,308,65
809061,329,65
809077,305,65
809088,323,65
809094,322,65
809112,307,65
809122,333,65
809127,311,65
809136,318,65
809152,329,65
809161,307,65
809161,330,65
809178,319,65
809194,314,65
809204,333,65
809211,310,65
809224,326,65
809235,328,65
809244,313,65
809255,338,65
809266,318,65
809275,323,65
809286,334,65
809294,314,65
809307,337,65
809317,327,65
809327,320,65
809338,343,65
809344,319,65
809344,333,65
809368,334,65
809377,316,65
809389,343,65
809394,324,65
809409,329,65
809420,342,65
809427,319,65
809441,342,65
809444,331,65
809460,324,65
809470,346,65
809480,320,65
809491,339,65
809494,339,65
809511,320,65
809523,344,65
