Timestamp,ECGValue,BPM
1011524,341,68
1011534,318,68
1011545,336,68
1011550,338,68
1011564,310,68
1011575,331,68
1011585,315,68
1011596,315,68
1011607,330,68
1011616,305,68
1011626,328,68
1011633,317,68
1011647,312,68
1011658,335,68
1011666,309,68
1011677,326,68
1011688,332,68
1011699,314,68
1011699,353,68
1011716,375,68
1011725,475,69
1011733,402,69
1011749,267,69
1011760,315,69
1011768,325,69
1011780,313,69
1011783,340,69
1011800,318,69
1011811,332,69
1011816,338,69
1011832,320,69
1011842,347,69
1011849,332,69
1011862,336,69
1011866,352,69
1011883,331,69
1011894,356,69
1011899,353,69
1011914,352,69
1011924,386,69
1011934,369,69
1011943,394,69
1011955,403,69
1011965,385,69
1011975,403,69
1011982,357,69
1011995,336,69
1012006,334,69
1012017,299,69
1012026,314,69
1012037,305,69
1012047,295,69
1012056,318,69
1012068,291,69
1012072,304,69
1012088,309,69
1012099,289,69
1012106,314,69
1012119,300,69
1012127,306,69
1012139,322,69
1012150,298,69
1012156,319,69
1012171,314,69
1012173,306,69
1012189,329,69
1012189,305,69
1012206,318,69
1012222,323,69
1012233,302,69
1012240,328,69
1012253,312,69
1012263,315,69
1012272,332,69
1012283,306,69
1012290,330,69
1012290,323,69
1012307,310,69
1012324,336,69
1012333,313,69
1012342,326,69
1012355,335,69
1012365,313,69
1012373,340,69
1012386,330,69
1012389,331,69
1012405,350,69
1012417,319,69
1012427,330,69
1012437,328,69
1012438,315,69
1012455,338,69
1012468,315,69
1012479,326,69
1012489,332,69
1012500,311,69
1012505,337,69
1012519,323,69
1012530,321,69
1012539,339,69
1012551,314,69
1012557,348,69
1012557,378,69
1012572,476,69
1012590,455,69
1012590,305,69
1012612,296,69
1012622,337,69
1012632,311,69
1012639,338,69
1012653,323,69
1012657,324,69
1012672,342,69
1012684,318,69
1012694,339,69
1012704,337,69
1012715,327,69
1012722,354,69
1012736,334,69
1012746,347,69
1012755,359,69
1012766,341,69
1012773,374,69
1012786,368,69
1012797,374,69
1012805,401,69
1012818,379,69
1012823,393,69
1012838,368,69
1012848,331,69
1012856,338,69
1012856,306,69
1012879,311,69
1012889,318,69
1012900,296,69
1012906,321,69
1012906,305,69
1012930,302,69
1012939,323,69
1012951,298,69
1012957,317,69
1012972,314,69
1012982,299,69
1012989,324,69
1013002,303,69
1013006,312,69
1013023,322,69
1013033,301,69
1013039,328,69
1013053,312,69
1013056,310,69
1013072,329,69
1013083,305,69
1013089,324,69
1013105,323,69
1013116,307,69
1013122,334,69
1013131,314,69
1013146,322,69
1013156,331,69
1013156,310,69
1013173,334,69
1013188,321,69
1013197,316,69
1013205,337,69
1013218,313,69
1013228,335,69
1013238,338,69
1013240,322,69
1013255,351,69
1013270,328,69
1013273,324,69
1013290,336,69
1013290,314,69
1013306,337,69
1013320,325,69
1013331,321,69
1013339,341,69
1013351,317,69
1013356,333,69
1013372,332,69
1013381,317,69
1013389,342,69
1013403,321,69
1013406,336,69
1013423,360,69
1013432,428,68
1013439,500,68
1013453,394,68
1013457,261,68
1013472,341,68
1013484,312,68
1013495,328,68
1013505,330,68
1013506,317,68
1013523,341,68
1013532,323,68
1013546,333,68
1013556,344,68
1013567,322,68
1013573,347,68
1013584,339,68
1013598,333,68
1013607,360,68
1013618,342,68
1013623,365,68
1013633,375,68
1013640,368,68
1013656,403,68
1013669,389,68
1013680,394,68
1013689,392,68
1013701,340,68
1013705,344,68
1013721,320,68
1013731,302,68
1013740,323,68
1013751,295,68
1013762,312,68
1013772,315,68
1013773,295,68
1013790,322,68
1013795,304,68
1013806,306,68
1013822,321,68
1013834,297,68
1013839,320,68
1013854,312,68
1013865,301,68
1013872,325,68
1013885,301,68
1013895,318,68
1013906,320,68
1013916,302,68
1013923,329,68
1013930,311,68
1013947,314,68
1013956,328,68
1013967,307,68
1013972,331,68
1013985,324,68
1013998,313,68
1014006,336,68
1014019,311,68
1014029,328,68
1014039,331,68
1014048,310,68
1014056,336,68
1014070,317,68
1014081,321,68
1014089,337,68
1014101,315,68
1014111,341,68
1014122,335,68
1014132,326,68
1014140,346,68
1014152,313,68
1014156,327,68
1014172,335,68
1014176,313,68
1014189,341,68
1014203,321,68
1014214,321,68
1014222,338,68
1014235,312,68
1014244,333,68
1014255,329,68
1014265,317,68
1014273,344,68
1014285,323,68
1014296,350,68
1014306,452,68
1014316,495,68
1014323,413,68
1014323,256,68
1014347,323,68
1014355,339,68
1014368,312,68
1014373,334,68
1014388,329,68
1014390,320,68
1014406,346,68
1014418,324,68
1014429,334,68
1014439,344,68
1014450,326,68
1014456,351,68
1014471,341,68
1014480,344,68
1014489,370,68
1014501,353,68
1014506,382,68
1014522,387,68
1014532,384,68
1014539,417,68
1014552,396,68
1014562,389,68
1014573,372,68
1014583,330,68
1014590,339,68
1014604,314,68
1014614,306,68
1014623,323,68
1014635,298,68
1014639,315,68
1014655,314,68
1014665,299,68
1014672,326,68
1014685,305,68
1014696,313,68
1014706,324,68
1014716,303,68
1014725,326,68
1014737,314,68
1014748,310,68
1014756,332,68
1014756,307,68
1014773,327,68
1014789,325,68
1014799,309,68
1014806,335,68
1014819,311,68
1014829,320,68
1014839,329,68
1014850,307,68
1014856,329,68
1014870,320,68
1014881,314,68
1014890,335,68
1014890,312,68
1014905,333,68
1014921,330,68
1014932,315,68
1014940,339,68
1014952,320,68
1014955,325,68
1014972,335,68
1014983,313,68
1014990,337,68
1015004,328,68
1015014,327,68
1015022,350,68
1015035,326,68
1015045,335,68
1015055,328,68
1015056,314,68
1015072,341,68
1015085,318,68
1015096,327,68
1015106,337,68
1015117,314,68
1015123,338,68
1015128,326,68
1015148,321,68
1015156,343,68
1015156,317,68
1015173,333,68
1015187,350,68
1015200,389,68
1015206,528,67
1015206,437,67
1015223,275,67
1015239,319,67
1015239,320,67
1015257,335,67
1015271,328,67
1015281,320,67
1015289,343,67
1015301,321,67
1015307,337,67
1015322,340,67
1015323,323,67
1015340,352,67
1015340,334,67
1015363,340,67
1015372,360,67
1015384,340,67
1015389,368,67
1015404,369,67
1015406,369,67
1015424,400,67
1015434,385,67
1015445,403,67
1015455,400,67
1015466,360,67
1015473,359,67
1015486,325,67
1015489,314,67
1015506,322,67
1015506,298,67
1015528,319,67
1015538,311,67
1015539,300,67
1015555,323,67
1015569,298,67
1015573,311,67
1015589,318,67
1015590,301,67
1015605,324,67
1015619,309,67
1015623,309,67
1015639,327,67
1015651,304,67
1015656,327,67
1015672,321,67
1015681,309,67
1015689,332,67
1015689,313,67
1015705,322,67
1015722,329,67
1015731,310,67
1015739,334,67
1015754,316,67
1015764,315,67
1015772,335,67
1015785,311,67
1015789,331,67
1015805,326,67
1015805,314,67
1015822,339,67
1015835,316,67
1015840,327,67
1015856,335,67
1015856,314,67
1015873,340,67
1015887,330,67
1015897,331,67
1015906,352,67
1015917,330,67
1015928,342,67
1015938,331,67
1015940,319,67
1015955,344,67
1015969,320,67
1015973,330,67
1015989,339,67
1016000,315,67
1016007,338,67
1016007,324,67
1016031,322,67
1016040,342,67
1016040,318,67
1016055,336,67
1016071,349,67
1016073,366,67
1016089,494,67
1016103,418,67
1016113,306,67
1016122,309,67
1016133,325,67
1016139,339,67
1016154,331,67
1016156,327,67
1016173,351,67
1016185,325,67
1016195,345,67
1016206,344,67
1016215,328,67
1016223,356,67
1016228,337,67
1016247,348,67
1016256,363,67
1016256,344,67
1016273,377,67
1016282,373,67
1016298,373,67
1016306,404,67
1016318,385,67
1016328,407,67
1016339,399,67
1016348,363,67
1016356,362,67
1016356,324,67
1016380,314,67
1016389,321,67
1016401,297,67
1016406,318,67
1016421,311,67
1016430,300,67
1016439,323,67
1016451,299,67
1016457,316,67
1016472,316,67
1016478,301,67
1016490,328,67
1016490,310,67
1016505,315,67
1016523,328,67
1016532,305,67
1016539,329,67
1016554,321,67
1016557,311,67
1016572,334,67
1016585,309,67
1016590,323,67
1016605,329,67
1016605,311,67
1016622,338,67
1016637,316,67
1016646,321,67
1016657,337,67
1016657,308,67
1016674,330,67
1016683,326,67
1016690,315,67
1016707,337,67
1016718,315,67
1016729,331,67
1016739,339,67
1016750,321,67
1016756,346,67
1016770,322,67
1016780,316,67
1016790,333,67
1016800,311,67
1016806,333,67
1016806,324,67
1016822,314,67
1016839,338,67
1016852,314,67
1016857,326,67
1016873,335,67
1016883,315,67
1016890,342,67
1016903,327,67
1016907,339,67
1016923,401,68
1016935,459,68
1016939,391,68
1016954,278,68
1016965,303,68
1016973,346,68
1016986,315,68
1016994,331,68
1017006,341,68
1017017,319,68
1017022,347,68
1017036,330,68
1017047,334,68
1017057,354,68
1017057,331,68
1017073,357,68
1017089,354,68
1017090,347,68
1017106,374,68
1017119,360,68
1017123,377,68
1017139,396,68
1017139,383,68
1017156,414,68
1017156,402,68
1017173,391,68
1017190,381,68
1017190,333,68
1017206,335,68
1017221,318,68
1017232,301,68
1017239,324,68
1017239,299,68
1017258,311,68
1017258,318,68
1017274,295,68
1017290,319,68
1017290,308,68
1017313,305,68
1017323,322,68
1017334,301,68
1017345,320,68
1017355,319,68
1017365,307,68
1017372,332,68
1017386,311,68
1017396,316,68
1017406,328,68
1017407,304,68
1017423,328,68
1017437,315,68
1017440,310,68
1017458,330,68
1017458,307,68
1017474,328,68
1017484,326,68
1017491,312,68
1017506,335,68
1017520,316,68
1017523,324,68
1017539,343,68
1017540,320,68
1017556,345,68
1017571,329,68
1017572,313,68
1017591,337,68
1017601,313,68
1017606,328,68
1017621,329,68
1017632,311,68
1017639,335,68
1017652,316,68
1017663,320,68
1017673,334,68
1017683,311,68
1017691,333,68
1017703,326,68
1017707,333,68
1017722,387,68
1017735,461,69
1017740,422,69
1017755,303,69
1017766,283,69
1017773,342,69
1017785,318,69
1017796,325,69
1017806,341,69
1017817,319,69
1017823,344,69
1017823,333,69
1017848,327,69
1017856,350,69
1017868,330,69
1017879,346,69
1017889,351,69
1017898,338,69
1017906,372,69
1017919,357,69
1017930,367,69
1017940,394,69
1017940,378,69
1017956,406,69
1017971,404,69
1017973,385,69
1017991,387,69
1018002,336,69
1018007,331,69
1018022,324,69
1018032,300,69
1018039,321,69
1018053,306,69
1018063,307,69
1018072,323,69
1018084,295,69
1018091,317,69
1018104,311,69
1018115,301,69
1018123,325,69
1018135,303,69
1018145,317,69
1018156,324,69
1018166,304,69
1018172,330,69
1018187,315,69
1018197,313,69
1018206,330,69
1018217,307,69
1018223,329,69
1018238,323,69
1018248,311,69
1018256,335,69
1018269,312,69
1018273,324,69
1018289,332,69
1018292,310,69
1018305,339,69
1018319,323,69
1018330,320,69
1018339,346,69
1018351,323,69
1018357,345,69
1018372,338,69
1018381,315,69
1018390,341,69
1018403,319,69
1018413,325,69
1018423,333,69
1018425,312,69
1018439,338,69
1018453,324,69
1018456,320,69
1018473,339,69
1018481,320,69
1018492,340,69
1018492,338,69
1018507,332,69
1018522,369,69
1018535,447,70
1018539,485,70
1018556,384,70
1018557,267,70
1018576,347,70
1018587,329,70
1018597,325,70
1018607,346,70
1018607,324,70
1018624,343,70
1018638,345,70
1018649,329,70
1018657,356,70
1018669,338,70
1018674,346,70
1018689,361,70
1018700,341,70
1018705,366,70
1018720,362,70
1018730,363,70
1018740,392,70
1018751,376,70
1018756,399,70
1018771,405,70
1018782,387,70
1018789,392,70
1018803,349,70
1018805,337,70
1018822,338,70
1018832,306,70
1018839,325,70
1018854,316,70
1018857,306,70
1018873,326,70
1018885,302,70
1018893,317,70
1018904,318,70
1018915,300,70
1018923,326,70
1018928,310,70
1018947,311,70
1018956,328,70
1018956,303,70
1018973,326,70
1018983,322,70
1018998,312,70
1019006,332,70
1019006,311,70
1019023,323,70
1019039,329,70
1019040,308,70
1019056,332,70
1019056,316,70
1019073,317,70
1019090,332,70
1019100,305,70
1019106,327,70
1019121,320,70
1019131,309,70
1019140,335,70
1019140,312,70
1019162,325,70
1019172,329,70
1019181,315,70
1019190,343,70
1019193,330,70
1019206,328,70
1019223,335,70
1019233,309,70
1019240,331,70
1019240,325,70
1019265,313,70
1019273,334,70
1019281,312,70
1019295,323,70
1019305,329,70
1019315,309,70
1019322,335,70
1019331,319,70
1019347,318,70
1019357,340,70
1019368,327,70
1019377,413,70
1019388,502,70
1019393,415,70
1019407,290,70
1019418,302,70
1019423,323,70
1019438,327,70
1019449,306,70
1019457,330,70
1019470,321,70
1019479,318,70
1019490,340,70
1019500,317,70
1019507,333,70
1019521,336,70
1019531,323,70
1019539,349,70
1019552,330,70
1019562,345,70
1019572,362,70
1019583,347,70
1019590,383,70
1019594,376,70
1019606,380,70
1019622,402,70
1019634,366,70
1019640,359,70
1019654,338,70
1019656,305,70
1019674,321,70
1019685,295,70
1019693,300,70
1019705,309,70
1019716,287,70
1019723,312,70
1019736,303,70
1019740,297,70
1019757,319,70
1019767,294,70
1019773,310,70
1019788,311,70
1019798,296,70
1019805,321,70
1019819,299,70
1019829,307,70
1019839,321,70
1019850,298,70
1019856,319,70
1019856,311,70
1019880,304,70
1019889,324,70
1019901,303,70
1019906,319,70
1019922,323,70
1019931,305,70
1019939,332,70
1019952,313,70
1019956,317,70
1019972,331,70
1019982,305,70
1019989,328,70
1019994,324,70
1020007,313,70
1020023,337,70
1020034,314,70
1020040,333,70
1020040,339,70
1020057,323,70
1020074,342,70
1020083,314,70
1020096,319,70
1020106,336,70
1020107,312,70
1020124,333,70
1020137,325,70
1020141,315,70
1020157,336,70
1020157,314,70
1020173,325,70
1020187,331,70
1020194,312,70
1020206,336,70
1020219,329,70
1020229,343,70
1020239,461,70
1020250,485,70
1020257,397,70
1020270,259,70
1020279,318,70
1020290,336,70
1020294,312,70
1020306,325,70
1020322,333,70
1020332,314,70
1020339,341,70
1020353,328,70
1020357,329,70
1020373,347,70
1020382,324,70
1020390,345,70
1020404,345,70
1020415,337,70
1020423,369,70
1020435,351,70
1020445,369,70
1020455,389,70
1020465,376,70
1020476,407,70
1020486,394,70
1020494,375,70
1020507,366,70
1020517,321,70
1020523,324,70
1020537,314,70
1020548,296,70
1020557,320,70
1020568,299,70
1020578,306,70
1020589,317,70
1020599,296,70
1020606,320,70
1020620,308,70
1020629,304,70
1020639,324,70
1020651,301,70
1020656,316,70
1020671,315,70
1020681,301,70
1020690,327,70
1020694,308,70
1020710,312,70
1020722,328,70
1020732,307,70
1020740,327,70
1020740,317,70
1020757,312,70
1020773,333,70
1020784,309,70
1020789,326,70
1020804,326,70
1020814,310,70
1020823,335,70
1020835,314,70
1020845,317,70
1020855,330,70
1020866,310,70
1020873,331,70
1020887,323,70
1020897,314,70
1020906,339,70
1020917,313,70
1020923,330,70
1020923,333,70
1020948,317,70
1020956,345,70
1020956,331,70
1020973,337,70
1020989,351,70
1020994,314,70
1021007,334,70
1021020,327,70
1021030,315,70
1021040,338,70
1021050,316,70
1021057,328,70
1021057,333,70
1021082,315,70
1021090,339,70
1021094,324,70
1021106,324,70
1021122,341,70
1021132,319,70
1021140,354,70
1021140,434,70
1021157,506,70
1021174,434,70
1021183,247,70
1021194,325,70
1021194,336,70
1021207,312,70
1021223,339,70
1021233,324,70
1021246,326,70
1021256,345,70
1021257,321,70
1021273,340,70
1021286,337,70
1021297,327,70
1021306,352,70
1021318,334,70
1021322,347,70
1021338,363,70
1021349,349,70
1021358,382,70
1021369,377,70
1021379,386,70
1021389,409,70
1021400,388,70
1021406,394,70
1021420,366,70
1021427,331,70
1021439,341,70
1021451,308,70
1021457,311,70
1021472,320,70
1021482,297,70
1021490,322,70
1021494,308,70
1021513,304,70
1021523,326,70
1021534,301,70
1021540,317,70
1021554,316,70
1021564,301,70
1021573,325,70
1021577,304,70
1021595,313,70
1021605,326,70
1021616,306,70
1021623,330,70
1021635,317,70
1021640,314,70
1021656,334,70
1021666,310,70
1021673,324,70
1021682,324,70
1021697,310,70
1021706,334,70
1021718,316,70
1021723,321,70
1021732,334,70
1021749,312,70
1021757,333,70
1021770,324,70
1021780,318,70
1021790,340,70
1021799,315,70
1021810,330,70
1021820,332,70
1021830,313,70
1021840,338,70
1021850,323,70
1021862,326,70
1021872,340,70
1021873,319,70
1021889,346,70
1021902,339,70
1021907,329,70
1021923,342,70
1021934,317,70
1021940,333,70
1021954,337,70
1021957,316,70
1021972,339,70
1021985,324,70
1021995,324,70
1022006,339,70
1022015,316,70
1022024,338,70
1022036,332,70
1022046,320,70
1022056,351,70
1022066,338,70
1022076,420,69
1022076,510,69
1022098,391,69
1022106,282,69
1022106,322,69
1022123,324,69
1022133,341,69
1022150,321,69
1022156,342,69
1022156,339,69
1022172,325,69
1022190,350,69
1022195,329,69
1022206,340,69
1022221,352,69
1022231,333,69
1022239,361,69
1022251,350,69
1022262,353,69
1022272,377,69
1022283,362,69
1022290,389,69
1022296,396,69
1022313,389,69
1022323,415,69
1022334,383,69
1022340,365,69
1022340,353,69
1022365,312,69
1022373,326,69
1022385,307,69
1022394,302,69
1022406,322,69
1022406,298,69
1022423,314,69
1022437,313,69
1022447,297,69
1022456,321,69
1022467,302,69
1022478,308,69
1022488,322,69
1022496,300,69
1022506,325,69
1022519,314,69
1022523,310,69
1022539,332,69
1022549,306,69
1022557,321,69
1022557,324,69
1022574,306,69
1022590,330,69
1022601,311,69
1022606,317,69
1022606,330,69
1022631,308,69
1022640,329,69
1022640,322,69
1022662,313,69
1022673,335,69
1022681,314,69
1022690,327,69
1022696,334,69
1022710,317,69
1022723,340,69
1022734,323,69
1022741,332,69
1022755,348,69
1022756,328,69
1022773,346,69
1022785,329,69
1022796,316,69
1022806,341,69
1022817,316,69
1022826,331,69
1022837,336,69
1022847,318,69
1022857,342,69
1022857,325,69
1022874,322,69
1022888,341,69
1022898,320,69
1022906,339,69
1022919,340,69
1022929,339,69
1022939,417,69
1022950,476,69
1022956,386,69
1022970,284,69
1022981,314,69
1022990,346,69
1022996,327,69
1023011,330,69
1023021,349,69
1023032,324,69
1023039,345,69
1023053,344,69
1023063,336,69
1023073,359,69
1023083,339,69
1023090,351,69
1023104,365,69
1023114,345,69
1023122,377,69
1023134,370,69
1023141,372,69
1023155,406,69
1023165,390,69
1023173,411,69
1023187,412,69
1023196,385,69
1023207,384,69
1023216,338,69
1023223,326,69
1023237,326,69
1023247,299,69
1023256,321,69
1023268,307,69
1023275,302,69
1023275,321,69
1023296,294,69
1023306,314,69
1023319,313,69
1023323,297,69
1023339,326,69
1023350,306,69
1023356,311,69
1023370,327,69
1023381,303,69
1023390,326,69
1023401,319,69
1023412,312,69
1023422,335,69
1023432,309,69
1023440,324,69
1023440,325,69
1023457,307,69
1023473,333,69
1023484,315,69
1023490,319,69
1023504,333,69
1023514,311,69
1023523,333,69
1023534,328,69
1023540,317,69
1023555,340,69
1023566,318,69
1023573,334,69
1023587,342,69
1023597,324,69
1023607,338,69
1023607,318,69
1023623,320,69
1023638,336,69
1023648,310,69
1023657,331,69
1023657,327,69
1023673,314,69
1023688,338,69
1023697,317,69
1023706,328,69
1023720,336,69
1023730,315,69
1023740,340,69
1023740,339,69
1023756,370,69
1023766,484,70
1023782,397,70
1023790,307,70
1023802,304,70
1023812,320,70
1023822,336,70
1023833,318,70
1023840,328,70
1023840,342,70
1023856,318,70
1023873,346,70
1023884,336,70
1023890,333,70
1023897,354,70
1023915,332,70
1023924,352,70
1023932,354,70
1023940,346,70
1023956,377,70
1023957,365,70
1023973,383,70
1023987,406,70
1023997,389,70
1024007,416,70
1024007,396,70
1024023,367,70
1024038,361,70
1024041,318,70
1024057,322,70
1024069,315,70
1024073,296,70
1024090,319,70
1024100,300,70
1024107,305,70
1024120,315,70
1024130,293,70
1024140,314,70
1024151,307,70
1024156,300,70
1024171,324,70
1024181,302,70
1024189,317,70
1024202,322,70
1024207,306,70
1024223,330,70
1024233,313,70
1024240,315,70
1024254,328,70
1024264,305,70
1024273,327,70
1024284,318,70
1024290,309,70
1024305,330,70
1024316,309,70
1024323,324,70
1024336,327,70
1024346,305,70
1024356,331,70
1024367,317,70
1024373,319,70
1024387,340,70
1024397,322,70
1024406,344,70
1024417,334,70
1024423,314,70
1024438,338,70
1024449,317,70
1024456,328,70
1024456,334,70
1024473,313,70
1024489,336,70
1024500,321,70
1024507,322,70
1024520,342,70
1024523,317,70
1024539,337,70
1024551,332,70
1024556,324,70
1024572,359,70
1024582,418,70
1024590,493,70
1024602,399,70
1024613,263,70
1024623,340,70
1024633,325,70
1024639,320,70
1024653,341,70
1024663,319,70
1024673,340,70
1024685,339,70
1024696,325,70
1024706,352,70
1024706,331,70
1024723,342,70
1024736,358,70
1024747,338,70
1024757,365,70
1024767,359,70
1024773,364,70
1024788,389,70
1024798,374,70
1024806,401,70
1024819,407,70
1024825,391,70
1024839,400,70
1024850,353,70
1024856,342,70
1024868,337,70
1024879,307,70
1024890,327,70
1024901,314,70
1024907,307,70
1024920,329,70
1024931,303,70
1024940,322,70
1024952,324,70
1024962,306,70
1024972,328,70
1024974,309,70
1024990,316,70
1025003,329,70
1025007,306,70
1025023,329,70
1025034,320,70
1025040,313,70
1025054,336,70
1025065,313,70
1025073,327,70
1025085,330,70
1025091,311,70
1025098,336,70
1025116,320,70
1025124,323,70
1025134,336,70
1025140,315,70
1025156,335,70
1025167,328,70
1025173,320,70
1025182,345,70
1025198,322,70
1025207,339,70
1025219,347,70
1025228,329,70
1025239,354,70
1025250,332,70
1025256,326,70
1025270,345,70
1025280,319,70
1025289,338,70
1025301,332,70
1025307,318,70
1025321,343,70
1025326,322,70
1025340,332,70
1025353,338,70
1025357,317,70
1025373,343,70
1025374,329,70
1025390,338,70
1025403,392,70
1025414,479,70
1025423,455,70
1025434,323,70
1025444,287,70
1025455,344,70
1025465,313,70
1025474,325,70
1025477,335,70
1025490,315,70
1025506,339,70
1025507,330,70
1025523,328,70
1025536,346,70
1025540,322,70
1025556,343,70
1025567,344,70
1025573,332,70
1025589,362,70
1025598,348,70
1025606,363,70
1025619,384,70
1025629,371,70
1025639,403,70
1025650,396,70
1025657,383,70
1025671,381,70
1025679,330,70
1025690,329,70
1025701,316,70
1025708,294,70
1025722,316,70
1025731,296,70
1025741,300,70
1025741,314,70
1025756,290,70
1025772,313,70
1025783,304,70
1025790,298,70
1025803,320,70
1025808,296,70
1025823,310,70
1025834,314,70
1025845,297,70
1025855,322,70
1025865,304,70
1025874,310,70
1025876,326,70
1025891,302,70
1025907,327,70
1025917,319,70
1025923,309,70
1025937,334,70
1025940,309,70
1025957,324,70
1025968,328,70
1025973,308,70
1025988,331,70
1025990,314,70
1026006,318,70
1026020,336,70
1026030,310,70
1026039,334,70
1026049,326,70
1026056,316,70
1026071,344,70
1026081,327,70
1026090,337,70
1026102,346,70
1026106,320,70
1026122,337,70
1026132,324,70
1026140,324,70
1026153,341,70
1026157,318,70
1026173,337,70
1026184,333,70
1026190,319,70
1026204,346,70
1026214,323,70
1026223,334,70
1026235,344,70
1026240,322,70
1026256,358,70
1026256,367,70
1026273,477,70
1026286,499,70
1026290,352,70
1026306,294,70
1026317,347,70
1026324,324,70
1026337,347,70
1026348,327,70
1026357,338,70
1026368,349,70
1026373,328,70
1026389,352,70
1026399,341,70
1026407,336,70
1026420,359,70
1026430,338,70
1026440,359,70
1026440,363,70
1026456,353,70
1026472,388,70
1026475,374,70
1026489,390,70
1026502,412,70
1026512,396,70
1026522,418,70
1026533,388,70
1026540,356,70
1026554,356,70
1026557,319,70
1026574,325,70
1026583,326,70
1026590,307,70
1026604,330,70
1026607,311,70
1026624,315,70
1026635,330,70
1026641,304,70
1026641,325,70
1026666,320,70
1026674,309,70
1026687,330,70
1026690,308,70
1026706,321,70
1026717,325,70
1026724,304,70
1026738,329,70
1026748,311,70
1026757,314,70
1026769,329,70
1026779,303,70
1026790,324,70
1026799,319,70
1026809,306,70
1026809,330,70
1026825,308,70
1026840,321,70
1026851,328,70
1026857,305,70
1026857,330,70
1026874,313,70
1026891,312,70
1026902,328,70
1026912,304,70
1026923,326,70
1026933,321,70
1026940,309,70
1026953,332,70
1026963,309,70
1026973,320,70
1026985,327,70
1026989,304,70
1027005,332,70
1027015,322,70
1027023,319,70
1027023,340,70
1027040,310,70
1027049,320,70
1027056,319,70
1027074,304,70
1027087,326,70
1027090,304,70
1027107,313,70
1027117,320,70
1027123,298,70
1027138,320,70
1027148,308,70
1027156,305,70
1027169,325,70
1027179,302,70
1027190,325,70
1027200,340,70
1027208,430,69
1027220,501,69
1027230,362,69
1027240,242,69
1027250,324,69
1027256,291,69
1027271,314,69
1027279,304,69
1027289,296,69
1027303,317,69
1027313,295,69
1027323,311,69
1027333,314,69
1027340,300,69
1027354,326,69
1027364,311,69
1027373,321,69
1027384,337,69
1027390,319,69
1027405,349,69
1027416,349,69
1027424,352,69
1027427,384,69
1027441,363,69
1027456,382,69
1027457,371,69
1027473,325,69
1027484,329,69
1027498,294,69
1027507,288,69
1027518,301,69
1027528,277,69
1027539,297,69
1027549,290,69
1027557,282,69
1027557,307,69
1027574,284,69
1027590,294,69
1027600,302,69
1027607,285,69
1027620,313,69
1027624,298,69
1027640,300,69
1027640,318,69
1027662,294,69
1027671,316,69
1027683,312,69
1027690,301,69
1027701,327,69
1027707,305,69
1027723,318,69
1027733,328,69
1027740,306,69
1027754,331,69
1027764,319,69
1027773,317,69
1027785,335,69
1027790,314,69
1027805,334,69
1027816,330,69
1027823,318,69
1027835,341,69
1027842,323,69
1027856,334,69
1027867,345,69
1027874,322,69
1027888,347,69
1027898,334,69
1027907,331,69
1027918,351,69
1027929,325,69
1027939,345,69
1027940,342,69
1027957,329,69
1027970,360,69
1027980,340,69
1027989,346,69
1028001,351,69
1028007,319,69
1028007,344,69
1028024,333,69
1028040,326,69
1028053,346,69
1028062,323,69
1028073,338,69
1028083,338,69
1028090,321,69
1028103,346,69
1028114,326,69
1028123,333,69
1028133,345,69
1028140,334,69
1028140,391,69
1028165,496,68
1028173,459,68
1028185,334,68
1028195,282,68
1028206,340,68
1028216,331,68
1028223,314,68
1028237,338,68
1028241,322,68
1028256,330,68
1028268,344,68
1028274,323,68
1028283,345,68
1028291,338,68
1028306,333,68
1028319,357,68
1028323,338,68
1028339,356,68
1028350,369,68
1028358,354,68
1028369,392,68
1028381,384,68
1028390,394,68
1028401,414,68
1028406,387,68
1028422,387,68
1028427,357,68
1028440,325,68
1028440,336,68
1028457,304,68
1028473,310,68
1028483,316,68
1028490,300,68
1028503,324,68
1028507,307,68
1028523,307,68
1028533,324,68
1028541,300,68
1028541,320,68
1028566,314,68
1028573,303,68
1028586,326,68
1028591,304,68
1028602,316,68
1028607,327,68
1028624,304,68
1028638,331,68
1028648,316,68
1028656,313,68
1028668,332,68
1028678,306,68
1028688,328,68
1028691,327,68
1028706,310,68
1028719,336,68
1028729,314,68
1028740,322,68
1028750,333,68
1028756,311,68
1028771,333,68
1028776,321,68
1028791,315,68
1028801,335,68
1028808,314,68
1028821,328,68
1028824,328,68
1028840,313,68
1028853,340,68
1028863,320,68
1028874,323,68
1028883,346,68
1028890,322,68
1028903,346,68
1028906,332,68
1028923,313,68
1028928,335,68
1028945,314,68
1028955,327,68
1028966,331,68
1028974,309,68
1028981,338,68
1028996,318,68
1029006,320,68
1029017,335,68
1029024,311,68
1029038,332,68
1029048,328,68
1029057,325,68
1029057,362,68
1029073,419,67
1029088,472,67
1029099,359,67
1029107,256,67
1029107,344,67
1029124,316,67
1029140,321,67
1029141,340,67
1029157,316,67
1029157,338,67
1029181,335,67
1029190,324,67
1029202,349,67
1029207,328,67
1029207,342,67
1029233,355,67
1029240,333,67
1029240,365,67
1029258,355,67
1029273,360,67
1029284,387,67
1029293,373,67
1029303,401,67
1029307,405,67
1029323,389,67
1029332,397,67
1029341,344,67
1029356,334,67
1029357,326,67
1029374,296,67
1029381,315,67
1029396,302,67
1029406,299,67
1029417,316,67
1029428,293,67
1029438,309,67
1029441,308,67
1029457,289,67
1029468,318,67
1029473,296,67
1029488,301,67
1029499,317,67
1029506,295,67
1029520,319,67
1029530,310,67
1029540,305,67
1029550,325,67
1029557,301,67
1029571,319,67
1029581,316,67
1029590,301,67
1029602,324,67
1029613,308,67
1029622,313,67
1029625,329,67
1029643,301,67
1029644,325,67
1029657,319,67
1029673,310,67
1029685,334,67
1029690,308,67
1029705,325,67
1029715,331,67
1029723,315,67
1029735,345,67
1029740,322,67
1029756,316,67
1029766,332,67
1029776,305,67
1029786,330,67
1029796,323,67
1029806,309,67
1029807,334,67
1029824,312,67
1029838,325,67
1029848,331,67
1029856,310,67
1029869,338,67
1029878,323,67
1029889,330,67
1029899,359,67
1029907,401,68
1029920,469,68
1029923,344,68
1029940,260,68
1029949,352,68
1029961,321,68
1029972,332,68
1029981,341,68
1029990,322,68
1030002,348,68
1030012,333,68
1030023,336,68
1030033,354,68
1030040,331,68
1030053,353,68
1030064,353,68
1030073,340,68
1030084,372,68
1030091,359,68
1030105,376,68
1030107,394,68
1030124,380,68
1030136,416,68
1030140,408,68
1030157,404,68
1030166,407,68
1030174,355,68
1030180,347,68
1030190,330,68
1030208,304,68
1030218,324,68
1030228,302,68
1030238,308,68
1030248,316,68
1030258,294,68
1030269,316,68
1030280,304,68
1030290,299,68
1030300,324,68
1030307,300,68
1030307,316,68
1030331,318,68
1030340,302,68
1030351,330,68
1030362,308,68
1030372,315,68
1030382,327,68
1030390,302,68
1030403,329,68
1030413,316,68
1030423,307,68
1030428,330,68
1030441,307,68
1030454,321,68
1030457,322,68
1030475,307,68
1030485,331,68
1030490,312,68
1030506,317,68
1030515,331,68
1030523,310,68
1030536,336,68
1030546,330,68
1030556,321,68
1030567,338,68
1030577,307,68
1030588,325,68
1030598,326,68
1030607,308,68
1030607,334,68
1030624,315,68
1030639,316,68
1030649,334,68
1030656,309,68
1030670,334,68
1030679,330,68
1030690,316,68
1030691,342,68
1030708,332,68
1030722,375,68
1030731,489,69
1030740,412,69
1030751,322,69
1030757,292,69
1030773,324,69
1030783,334,69
1030791,312,69
1030803,333,69
1030807,333,69
1030823,320,69
1030834,345,69
1030840,324,69
1030855,337,69
1030865,347,69
1030874,329,69
1030885,358,69
1030890,347,69
1030905,348,69
1030916,375,69
1030923,359,69
1030937,386,69
1030947,393,69
1030957,386,69
1030968,414,69
1030975,384,69
1030975,372,69
1030990,356,69
1031007,313,69
1031019,327,69
1031029,305,69
1031039,300,69
1031049,321,69
1031056,294,69
1031070,311,69
1031079,312,69
1031091,295,69
1031101,321,69
1031106,302,69
1031122,310,69
1031131,322,69
1031140,298,69
1031140,325,69
1031157,314,69
1031173,304,69
1031182,332,69
1031190,309,69
1031203,322,69
1031206,324,69
1031224,306,69
1031234,331,69
1031244,311,69
1031255,316,69
1031265,332,69
1031273,309,69
1031273,330,69
1031290,325,69
1031306,315,69
1031306,338,69
1031324,312,69
1031332,325,69
1031347,336,69
1031357,319,69
1031357,347,69
1031374,327,69
1031383,320,69
1031399,334,69
1031407,310,69
1031407,333,69
1031424,327,69
1031439,314,69
1031450,338,69
1031457,315,69
1031471,327,69
1031480,334,69
1031491,316,69
1031493,339,69
1031512,325,69
1031522,330,69
1031533,360,69
1031540,420,69
1031552,500,69
1031563,408,69
1031573,264,69
1031584,338,69
1031590,317,69
1031604,323,69
1031614,332,69
1031624,312,69
1031625,340,69
1031640,327,69
1031655,325,69
1031666,347,69
1031674,321,69
1031686,343,69
1031696,341,69
1031707,331,69
1031717,360,69
1031723,345,69
1031737,359,69
1031741,379,69
1031756,365,69
1031768,397,69
1031773,395,69
1031789,389,69
1031799,396,69
1031807,346,69
1031807,342,69
1031824,326,69
1031840,302,69
1031850,322,69
1031857,301,69
1031871,305,69
1031880,319,69
1031890,298,69
1031890,321,69
1031906,310,69
1031922,303,69
1031932,324,69
1031939,300,69
1031953,318,69
1031957,320,69
1031974,302,69
1031983,330,69
1031991,311,69
1032004,314,69
1032014,330,69
1032023,306,69
1032035,329,69
1032041,320,69
1032055,312,69
1032058,336,69
1032074,311,69
1032078,326,69
1032090,330,69
1032107,308,69
1032117,334,69
1032123,316,69
1032137,319,69
1032148,336,69
1032156,310,69
1032169,336,69
1032179,331,69
1032189,324,69
1032199,344,69
1032207,312,69
1032220,324,69
1032230,333,69
1032240,309,69
1032250,333,69
1032257,317,69
1032271,320,69
1032282,336,69
1032291,312,69
1032302,332,69
1032307,327,69
1032307,315,69
1032333,340,69
1032340,319,69
1032353,344,69
1032364,421,69
1032374,493,69
1032384,440,69
1032390,266,69
1032405,306,69
1032407,336,69
1032423,307,69
1032436,327,69
1032445,327,69
1032456,314,69
1032457,341,69
1032474,322,69
1032487,330,69
1032497,342,69
1032507,319,69
1032518,347,69
1032528,338,69
1032538,336,69
1032541,362,69
1032557,345,69
1032557,371,69
1032579,378,69
1032590,372,69
1032591,406,69
1032607,389,69
1032607,384,69
1032624,369,69
1032640,325,69
1032652,332,69
1032657,310,69
1032672,298,69
1032681,317,69
1032691,291,69
1032702,309,69
1032713,311,69
1032723,292,69
1032734,319,69
1032740,300,69
1032754,305,69
1032764,318,69
1032773,296,69
1032785,319,69
1032790,310,69
1032805,302,69
1032807,325,69
1032823,303,69
1032836,318,69
1032846,322,69
1032856,304,69
1032867,330,69
1032873,313,69
1032887,315,69
1032898,331,69
1032907,308,69
1032918,330,69
1032926,325,69
1032926,315,69
1032940,339,69
1032957,315,69
1032957,325,69
1032979,334,69
1032990,314,69
1033000,336,69
1033007,324,69
1033021,329,69
1033031,349,69
1033039,323,69
1033052,334,69
1033057,326,69
1033057,316,69
1033082,341,69
1033090,317,69
1033104,327,69
1033107,335,69
1033123,314,69
1033133,337,69
1033140,321,69
1033140,321,69
1033164,340,69
1033174,316,69
1033182,334,69
1033191,345,69
1033206,392,69
1033215,529,69
1033223,441,69
1033236,277,69
1033246,315,69
1033256,315,69
1033267,333,69
1033273,321,69
1033288,318,69
1033290,339,69
1033308,315,69
1033318,335,69
1033324,334,69
1033340,320,69
1033344,346,69
1033356,329,69
1033369,339,69
1033380,356,69
1033390,339,69
1033401,369,69
1033407,367,69
1033421,371,69
1033424,402,69
1033440,387,69
1033450,406,69
1033456,400,69
1033472,358,69
1033482,357,69
1033490,317,69
1033503,311,69
1033507,319,69
1033523,294,69
1033534,315,69
1033540,308,69
1033554,299,69
1033565,321,69
1033573,297,69
1033585,312,69
1033596,316,69
1033606,300,69
1033616,326,69
1033624,308,69
1033636,309,69
1033646,324,69
1033657,300,69
1033667,322,69
1033673,317,69
1033687,309,69
1033698,332,69
1033707,307,69
1033718,324,69
1033724,328,69
1033740,310,69
1033750,335,69
1033757,319,69
1033757,319,69
1033775,336,69
1033790,312,69
1033801,333,69
1033808,328,69
1033808,316,69
1033824,338,69
1033840,315,69
1033840,326,69
1033857,337,69
1033873,322,69
1033882,349,69
1033890,334,69
1033903,326,69
1033907,333,69
1033923,314,69
1033935,334,69
1033940,330,69
1033940,317,69
1033965,342,69
1033974,320,69
1033982,328,69
1033991,337,69
1034006,317,69
1034017,343,69
1034024,328,69
1034037,323,69
1034040,353,69
1034057,366,69
1034068,503,69
1034074,477,69
1034088,305,69
1034098,296,69
1034107,327,69
1034119,324,69
1034129,335,69
1034139,313,69
1034150,340,69
1034157,329,69
1034171,323,69
1034180,346,69
1034190,324,69
1034190,341,69
1034206,345,69
1034222,332,69
1034232,362,69
1034241,349,69
1034241,360,69
1034257,379,69
1034273,365,69
1034283,399,69
1034290,397,69
1034290,393,69
1034307,410,69
1034323,366,69
1034331,355,69
1034339,335,69
1034355,306,69
1034357,320,69
1034374,300,69
1034381,304,69
1034396,317,69
1034406,293,69
1034417,314,69
1034424,308,69
1034437,298,69
1034448,323,69
1034457,300,69
1034457,314,69
1034473,319,69
1034489,300,69
1034491,326,69
1034506,311,69
1034520,312,69
1034524,328,69
1034539,305,69
1034550,325,69
1034557,320,69
1034571,310,69
1034582,334,69
1034590,312,69
1034602,320,69
1034607,328,69
1034622,305,69
1034632,334,69
1034640,317,69
1034652,316,69
1034663,335,69
1034673,310,69
1034684,331,69
1034690,327,69
1034704,314,69
1034715,339,69
1034724,318,69
1034724,329,69
1034741,337,69
1034750,321,69
1034757,351,69
1034774,337,69
1034786,331,69
1034796,340,69
1034807,313,69
1034817,332,69
1034823,329,69
1034838,316,69
1034848,341,69
1034856,319,69
1034868,328,69
1034878,337,69
1034889,316,69
1034899,339,69
1034907,328,69
1034920,323,69
1034930,346,69
1034940,331,69
1034941,422,69
1034957,520,69
1034972,416,69
1034974,276,69
1034991,312,69
1034991,329,69
1035012,335,69
1035023,315,69
1035033,339,69
1035041,329,69
1035054,326,69
1035056,347,69
1035074,322,69
1035078,339,69
1035090,342,69
1035104,329,69
1035107,356,69
1035124,340,69
1035135,351,69
1035146,373,69
1035156,357,69
1035166,390,69
1035174,389,69
1035187,389,69
1035197,415,69
1035206,383,69
1035217,376,69
1035226,353,69
1035226,317,69
1035248,329,69
1035257,306,69
1035257,307,69
1035279,321,69
1035289,297,69
1035299,320,69
1035308,310,69
1035320,300,69
1035330,324,69
1035340,302,69
1035352,314,69
1035357,320,69
1035372,300,69
1035382,326,69
1035391,311,69
1035402,312,69
1035407,330,69
1035422,307,69
1035429,325,69
1035441,322,69
1035453,311,69
1035457,333,69
1035474,312,69
1035484,321,69
1035490,328,69
1035505,310,69
1035508,335,69
1035524,318,69
1035535,320,69
1035541,337,69
1035555,312,69
1035567,332,69
1035574,330,69
1035587,318,69
1035591,343,69
1035607,319,69
1035617,327,69
1035624,338,69
1035640,315,69
1035648,341,69
1035657,336,69
1035669,331,69
1035679,353,69
1035689,323,69
1035700,330,69
1035708,330,69
1035720,317,69
1035730,337,69
1035741,316,69
1035751,325,69
1035761,335,69
1035771,310,69
1035783,336,69
1035791,325,69
1035803,320,69
1035812,343,69
1035824,319,69
1035833,349,69
1035841,375,69
1035854,464,69
1035857,455,69
1035873,308,69
1035885,284,69
1035889,346,69
1035905,313,69
1035909,340,69
1035923,330,69
1035937,323,69
1035940,348,69
1035957,326,69
1035957,343,69
1035973,346,69
1035987,333,69
1035990,357,69
1036007,343,69
1036018,348,69
1036023,368,69
1036039,348,69
1036041,379,69
1036056,379,69
1036069,380,69
1036074,410,69
1036089,393,69
1036100,401,69
1036109,388,69
1036121,342,69
1036131,348,69
1036140,314,69
1036151,307,69
1036158,322,69
1036172,295,69
1036182,315,69
1036190,309,69
1036203,299,69
1036209,323,69
1036223,298,69
1036234,309,69
1036239,320,69
1036255,300,69
1036264,325,69
1036275,310,69
1036275,310,69
1036291,330,69
1036305,305,69
1036309,326,69
1036323,324,69
1036337,309,69
1036340,334,69
1036356,310,69
1036367,322,69
1036378,328,69
1036388,309,69
1036398,331,69
1036407,318,69
1036418,315,69
1036423,335,69
1036439,310,69
1036440,328,69
1036456,328,69
1036471,314,69
1036481,340,69
1036490,318,69
1036490,334,69
1036509,345,69
1036520,323,69
1036524,342,69
1036540,320,69
1036553,316,69
1036562,338,69
1036572,315,69
1036583,331,69
1036590,331,69
1036603,312,69
1036613,338,69
1036624,318,69
1036634,325,69
1036640,338,69
1036655,314,69
1036657,338,69
1036674,340,69
1036683,349,69
1036691,457,70
1036706,437,70
1036716,333,70
1036724,289,70
1036736,325,70
1036747,340,70
1036757,325,70
1036767,328,70
1036778,344,70
1036788,324,70
1036798,344,70
1036807,338,70
1036819,332,70
1036829,356,70
1036840,333,70
1036850,350,70
1036856,358,70
1036870,343,70
1036881,373,70
1036890,364,70
1036902,376,70
1036909,403,70
1036922,385,70
1036932,409,70
1036941,402,70
1036941,372,70
1036963,369,70
1036973,325,70
1036982,320,70
1036990,320,70
1037004,292,70
1037009,317,70
1037024,300,70
1037035,302,70
1037040,319,70
1037054,295,70
1037066,314,70
1037073,310,70
1037086,300,70
1037090,324,70
1037106,302,70
1037117,312,70
1037123,327,70
1037137,301,70
1037147,328,70
1037157,315,70
1037168,314,70
1037178,330,70
1037188,306,70
1037199,323,70
1037207,323,70
1037209,307,70
1037230,333,70
1037240,309,70
1037240,320,70
1037256,333,70
1037270,305,70
1037273,332,70
1037290,321,70
1037302,324,70
1037311,346,70
1037322,322,70
1037333,334,70
1037340,326,70
1037353,315,70
1037364,337,70
1037374,316,70
1037383,320,70
1037390,333,70
1037404,309,70
1037410,333,70
1037423,323,70
1037436,315,70
1037440,340,70
1037456,315,70
1037466,331,70
1037476,346,70
1037486,352,70
1037496,475,71
1037507,416,71
1037510,303,71
1037523,300,71
1037538,318,71
1037547,328,71
1037556,324,71
1037568,318,71
1037574,342,71
1037589,321,71
1037599,337,71
1037607,343,71
1037619,325,71
1037630,354,71
1037640,340,71
1037651,346,71
1037657,362,71
1037657,343,71
1037681,371,71
1037690,372,71
1037701,372,71
1037712,402,71
1037723,388,71
1037733,405,71
1037739,406,71
1037752,362,71
1037764,363,71
1037773,327,71
1037784,311,71
1037790,323,71
1037804,294,71
1037810,314,71
1037824,311,71
1037835,299,71
1037840,320,71
1037855,297,71
1037866,310,71
1037875,318,71
1037887,297,71
1037896,324,71
1037907,309,71
1037910,309,71
1037924,330,71
1037937,304,71
1037948,324,71
1037957,321,71
1037969,305,71
1037979,329,71
1037989,309,71
1037999,319,71
1038006,328,71
1038020,304,71
1038026,332,71
1038040,318,71
1038040,314,71
1038058,335,71
1038071,312,71
1038082,329,71
1038091,330,71
1038091,320,71
1038111,345,71
1038124,327,71
1038127,330,71
1038141,330,71
1038153,310,71
1038157,335,71
1038173,323,71
1038183,315,71
1038195,333,71
1038204,311,71
1038214,329,71
1038224,327,71
1038236,310,71
1038240,338,71
1038256,318,71
1038266,323,71
1038277,345,71
1038288,338,71
1038297,457,71
1038307,459,71
1038311,342,71
1038323,288,71
1038338,317,71
1038349,327,71
1038357,330,71
1038369,313,71
1038373,340,71
1038389,322,71
1038390,327,71
1038407,343,71
1038411,318,71
1038431,343,71
1038440,337,71
1038451,333,71
1038456,357,71
1038472,338,71
1038482,358,71
1038490,370,71
1038502,360,71
1038511,393,71
1038523,381,71
1038526,389,71
1038539,402,71
1038554,361,71
1038565,359,71
1038573,332,71
1038585,305,71
1038595,323,71
1038605,296,71
1038616,309,71
1038623,316,71
1038637,295,71
1038646,322,71
1038656,304,71
1038667,304,71
1038674,322,71
1038674,295,71
1038698,319,71
1038706,315,71
1038719,303,71
1038724,328,71
1038739,308,71
1038749,319,71
1038756,325,71
1038769,306,71
1038774,330,71
1038781,317,71
1038800,316,71
1038807,334,71
1038821,309,71
1038831,328,71
1038840,325,71
1038852,312,71
1038858,335,71
1038872,314,71
1038882,324,71
1038890,333,71
1038903,310,71
1038914,335,71
1038923,326,71
1038928,327,71
1038939,347,71
1038955,323,71
1038957,338,71
1038973,327,71
1038981,316,71
1038990,340,71
1039006,318,71
1039016,326,71
1039023,334,71
1039036,311,71
1039040,337,71
1039057,323,71
1039057,318,71
1039074,341,71
1039083,317,71
1039098,336,71
1039107,347,71
1039118,364,71
1039123,503,71
1039139,458,71
1039149,329,71
1039157,303,71
1039170,319,71
1039180,333,71
1039190,323,71
1039201,317,71
1039206,340,71
1039221,317,71
1039231,334,71
1039240,336,71
1039252,321,71
1039262,347,71
1039273,332,71
1039273,337,71
1039290,355,71
1039300,336,71
1039314,364,71
1039323,362,71
1039334,363,71
1039340,394,71
1039354,379,71
1039365,401,71
1039373,398,71
1039386,358,71
1039396,357,71
1039406,321,71
1039412,312,71
1039424,322,71
1039437,297,71
1039440,317,71
1039456,308,71
1039468,300,71
1039474,324,71
1039480,299,71
1039498,313,71
1039507,318,71
1039518,298,71
1039529,322,71
1039540,305,71
1039541,308,71
1039556,323,71
1039556,300,71
1039574,322,71
1039590,317,71
1039602,306,71
1039607,330,71
1039612,308,71
1039624,319,71
1039640,326,71
1039652,307,71
1039663,331,71
1039673,315,71
1039683,314,71
1039690,333,71
1039704,311,71
1039714,331,71
1039724,326,71
1039734,313,71
1039740,338,71
1039755,314,71
1039765,323,71
1039775,334,71
1039786,316,71
1039791,342,71
1039806,328,71
1039812,319,71
1039824,332,71
1039829,313,71
1039841,331,71
1039856,327,71
1039856,313,71
1039874,338,71
1039889,316,71
1039898,325,71
1039906,332,71
1039919,312,71
1039929,338,71
1039939,324,71
1039950,319,71
1039957,348,71
1039957,358,71
1039974,495,71
1039991,481,71
1039991,321,71
1040006,292,71
1040022,322,71
1040024,317,71
1040040,332,71
1040053,312,71
1040063,337,71
1040073,324,71
1040083,323,71
1040090,345,71
1040090,321,71
1040115,338,71
1040123,342,71
1040135,329,71
1040141,355,71
1040155,342,71
1040166,356,71
1040174,375,71
1040186,364,71
1040197,398,71
1040206,396,71
1040217,394,71
1040226,410,71
1040237,367,71
1040248,356,71
1040257,339,71
1040269,307,71
1040274,326,71
1040289,302,71
1040299,306,71
1040306,319,71
1040320,296,71
1040326,320,71
1040340,309,71
1040351,301,71
1040357,323,71
1040357,300,71
1040374,314,71
1040390,318,71
1040402,300,71
1040406,325,71
1040423,307,71
1040433,311,71
1040440,327,71
1040440,304,71
1040457,323,71
1040473,319,71
1040484,309,71
1040490,334,71
1040505,310,71
1040514,325,71
1040524,327,71
1040528,308,71
1040540,335,71
1040556,320,71
1040557,321,71
1040574,336,71
1040583,313,71
1040590,334,71
1040607,329,71
1040617,319,71
1040623,342,71
1040638,320,71
1040648,331,71
1040657,338,71
1040668,318,71
1040679,345,71
1040689,335,71
1040700,336,71
1040707,354,71
1040720,320,71
1040731,331,71
1040740,328,71
1040750,317,71
1040757,341,71
1040771,319,71
1040782,328,71
1040790,333,71
1040802,315,71
1040812,340,71
1040823,325,71
1040833,324,71
1040840,340,71
1040840,317,71
1040864,342,71
1040873,366,71
1040884,471,70
1040890,523,70
1040905,367,70
1040915,264,70
1040924,345,70
1040936,313,70
1040946,337,70
1040956,325,70
1040966,325,70
1040976,344,70
1040987,323,70
1040997,340,70
1041006,340,70
1041014,327,70
1041024,352,70
1041038,336,70
1041041,347,70
1041057,363,70
1041069,346,70
1041073,378,70
1041090,379,70
1041091,382,70
1041106,414,70
1041114,394,70
1041131,409,70
1041140,395,70
1041140,352,70
1041157,354,70
1041172,320,70
1041181,314,70
1041190,322,70
1041202,300,70
1041207,320,70
1041223,310,70
1041233,303,70
1041240,324,70
1041240,301,70
1041264,319,70
1041273,322,70
1041282,305,70
1041290,329,70
1041305,311,70
1041316,318,70
1041324,331,70
1041330,309,70
1041341,330,70
1041356,322,70
1041367,316,70
1041374,338,70
1041381,314,70
1041390,326,70
1041407,330,70
1041419,313,70
1041423,338,70
1041439,321,70
1041449,323,70
1041456,338,70
1041469,314,70
1041478,335,70
1041490,327,70
1041500,317,70
1041507,339,70
1041521,318,70
1041530,329,70
1041540,335,70
1041551,317,70
1041562,342,70
1041572,327,70
1041582,327,70
1041590,345,70
1041603,326,70
1041607,351,70
1041623,347,70
1041625,329,70
1041640,341,70
1041654,323,70
1041665,333,70
1041673,336,70
1041685,316,70
1041695,338,70
1041705,322,70
1041716,323,70
1041725,340,70
1041736,317,70
1041740,336,70
1041756,335,70
1041757,323,70
1041774,353,70
1041783,354,70
1041790,479,70
1041808,504,70
1041819,350,70
1041824,283,70
1041839,336,70
1041849,322,70
1041857,341,70
1041857,320,70
1041880,338,70
1041890,336,70
1041901,323,70
1041907,349,70
1041921,331,70
1041931,341,70
1041940,352,70
1041952,332,70
1041962,357,70
1041973,350,70
1041982,348,70
1041990,378,70
1042004,364,70
1042013,389,70
1042024,398,70
1042024,386,70
1042040,410,70
1042055,374,70
1042057,355,70
1042074,343,70
1042083,306,70
1042090,322,70
1042105,306,70
1042115,302,70
1042123,320,70
1042131,295,70
1042140,315,70
1042156,315,70
1042167,298,70
1042173,324,70
1042188,303,70
1042198,307,70
1042206,321,70
1042219,298,70
1042228,324,70
1042239,313,70
1042249,307,70
1042256,329,70
1042270,306,70
1042277,323,70
1042291,324,70
1042291,308,70
1042307,332,70
1042321,315,70
1042332,320,70
1042340,335,70
1042352,310,70
1042362,328,70
1042373,324,70
1042383,311,70
1042390,333,70
1042403,312,70
1042408,326,70
1042424,329,70
1042434,311,70
1042440,336,70
1042455,322,70
1042458,323,70
1042474,340,70
1042486,322,70
1042490,343,70
1042506,339,70
1042517,318,70
1042524,336,70
1042537,314,70
1042547,325,70
1042557,329,70
