Timestamp,ECGValue,BPM
551963,340,68
551969,311,68
551983,309,68
551984,339,68
552002,295,68
552014,328,68
552017,323,68
552034,302,68
552044,344,68
552050,305,68
552065,324,68
552076,339,68
552084,300,68
552096,343,68
552101,319,68
552117,317,68
552126,349,68
552134,305,68
552147,339,68
552151,330,68
552168,310,68
552177,354,68
552185,316,68
552198,337,68
552202,352,68
552218,316,68
552229,355,68
552234,320,68
552250,315,68
552261,349,68
552267,305,68
552279,339,68
552285,330,68
552301,306,68
552311,348,68
552317,309,68
552332,327,68
552342,343,68
552351,305,68
552362,348,68
552371,338,68
552383,372,68
552394,520,68
552401,436,68
552401,327,68
552424,296,68
552434,308,68
552434,349,68
552450,313,68
552466,329,68
552475,346,68
552484,308,68
552484,351,68
552501,332,68
552517,324,68
552526,361,68
552535,322,68
552547,352,68
552550,350,68
552567,328,68
552578,377,68
552583,347,68
552599,372,68
552601,401,68
552618,373,68
552623,422,68
552639,402,68
552650,384,68
552660,396,68
552667,327,68
552680,340,68
552691,328,68
552701,292,68
552712,334,68
552722,299,68
552732,310,68
552743,328,68
552750,284,68
552764,327,68
552773,305,68
552783,296,68
552793,333,68
552801,292,68
552801,320,68
552825,322,68
552834,293,68
552846,339,68
552852,303,68
552852,312,68
552876,335,68
552883,294,68
552883,336,68
552902,315,68
552917,303,68
552926,339,68
552934,297,68
552948,326,68
552958,330,68
552968,299,68
552979,344,68
552989,310,68
553000,319,68
553009,340,68
553018,295,68
553021,339,68
553035,322,68
553050,312,68
553061,349,68
553067,307,68
553080,336,68
553091,338,68
553101,312,68
553101,361,68
553118,332,68
553127,337,68
553134,352,68
553150,298,68
553163,340,68
553174,324,68
553183,311,68
553184,349,68
553202,308,68
553202,335,68
553218,339,68
553233,308,68
553245,353,68
553251,318,68
553265,325,68
553276,353,68
553284,321,68
553297,453,68
553308,524,68
553317,419,68
553321,287,68
553335,301,68
553348,333,68
553351,339,68
553368,306,68
553378,347,68
553384,317,68
553399,326,68
553410,352,68
553418,311,68
553431,353,68
553434,339,68
553450,329,68
553461,369,68
553467,331,68
553481,362,68
553492,374,68
553501,350,68
553512,404,68
553522,382,68
553522,398,68
553534,433,68
553553,387,68
553564,410,68
553574,367,68
553584,324,68
553585,348,68
553601,299,68
553601,315,68
553625,322,68
553634,288,68
553634,331,68
553650,300,68
553667,301,68
553677,332,68
553684,287,68
553697,324,68
553707,314,68
553718,297,68
553728,336,68
553734,297,68
553749,319,68
553759,329,68
553767,293,68
553779,336,68
553785,310,68
553800,312,68
553810,337,68
553818,297,68
553831,334,68
553840,323,68
553851,304,68
553861,348,68
553867,306,68
553882,327,68
553892,339,68
553901,303,68
553912,347,68
553918,317,68
553918,316,68
553944,346,68
553950,302,68
553965,340,68
553967,333,68
553984,312,68
553994,356,68
554001,323,68
554015,342,68
554026,356,68
554034,316,68
554046,347,68
554056,318,68
554066,317,68
554077,346,68
554083,302,68
554097,338,68
554101,329,68
554118,307,68
554120,349,68
554134,310,68
554134,327,68
554159,342,68
554167,307,68
554180,358,68
554185,376,68
554200,499,68
554211,489,68
554218,279,68
554222,299,68
554241,332,68
554250,303,68
554261,348,68
554267,308,68
554282,326,68
554293,341,68
554301,308,68
554313,351,68
554322,329,68
554322,327,68
554334,361,68
554351,318,68
554364,353,68
554375,354,68
554384,336,68
554396,388,68
554402,362,68
554416,387,68
554422,412,68
554434,381,68
554446,425,68
554457,391,68
554467,360,68
554477,369,68
554484,307,68
554498,325,68
554508,315,68
554518,286,68
554529,329,68
554534,290,68
554549,305,68
554551,321,68
554568,284,68
554578,327,68
554586,301,68
554601,296,68
554611,331,68
554618,284,68
554624,320,68
554634,314,68
554651,288,68
554662,333,68
554670,297,68
554682,315,68
554685,327,68
554701,296,68
554714,330,68
554724,312,68
554734,304,68
554744,337,68
554750,299,68
554765,324,68
554776,323,68
554784,299,68
554784,337,68
554803,307,68
554803,316,68
554818,332,68
554835,297,68
554847,332,68
554857,318,68
554867,306,68
554877,340,68
554884,307,68
554898,339,68
554909,342,68
554917,312,68
554929,344,68
554934,306,68
554950,316,68
554960,334,68
554967,300,68
554975,336,68
554984,318,68
555000,309,68
555001,342,68
555017,304,68
555031,332,68
555034,333,68
555051,308,68
555056,351,68
555068,332,68
555083,448,68
555085,521,68
555101,378,68
555114,270,68
555118,325,68
555134,312,68
555135,345,68
555152,310,68
555152,336,68
555175,337,68
555184,315,68
555184,355,68
555200,325,68
555217,331,68
555226,355,68
555234,320,68
555247,356,68
555257,348,68
555268,341,68
555274,380,68
555283,353,68
555299,388,68
555301,402,68
555318,381,68
555327,424,68
555340,388,68
555350,377,68
555360,372,68
555369,312,68
555381,333,68
555384,309,68
555401,291,68
555412,324,68
555418,286,68
555432,309,68
555435,315,68
555452,285,68
555452,324,68
555473,294,68
555483,304,68
555484,329,68
555502,293,68
555514,332,68
555525,315,68
555534,302,68
555545,338,68
555551,296,68
555566,324,68
555576,328,68
555585,298,68
555597,338,68
555601,311,68
555617,315,68
555627,339,68
555634,296,68
555647,333,68
555651,318,68
555667,306,68
555679,343,68
555684,303,68
555684,327,68
555704,336,68
555717,305,68
555729,348,68
555735,319,68
555750,321,68
555761,353,68
555768,315,68
555776,353,68
555785,335,68
555801,313,68
555812,346,68
555818,305,68
555833,329,68
555843,336,68
555851,302,68
555862,344,68
555873,314,68
555883,317,68
555885,343,68
555901,302,68
555901,341,68
555925,332,68
555934,320,68
555945,367,68
555955,428,67
555962,498,67
555969,396,67
555984,245,67
555996,349,67
556007,315,67
556017,318,67
556028,345,67
556034,308,67
556047,346,67
556051,336,67
556068,321,67
556079,361,67
556084,322,67
556099,347,67
556102,358,67
556118,326,67
556131,370,67
556141,347,67
556151,355,67
556151,393,67
556168,363,67
556177,410,67
556184,406,67
556201,394,67
556201,429,67
556218,367,67
556233,363,67
556235,345,67
556253,298,67
556263,333,67
556273,301,67
556284,304,67
556294,327,67
556301,286,67
556314,320,67
556320,309,67
556335,292,67
556346,331,67
556351,292,67
556366,317,67
556370,328,67
556385,291,67
556397,335,67
556401,311,67
556418,312,67
556428,341,67
556434,297,67
556448,334,67
556458,325,67
556467,307,67
556479,346,67
556484,308,67
556500,326,67
556510,336,67
556518,303,67
556531,343,67
556540,316,67
556550,316,67
556562,343,67
556568,305,67
556582,342,67
556586,333,67
556602,320,67
556613,362,67
556618,327,67
556633,338,67
556644,340,67
556651,301,67
556664,344,67
556674,318,67
556684,318,67
556695,349,67
556701,305,67
556716,337,67
556726,331,67
556735,309,67
556735,348,67
556756,313,67
556766,334,67
556776,352,67
556784,328,67
556798,464,67
556802,484,67
556818,367,67
556828,293,67
556835,306,67
556848,334,67
556859,335,67
556867,314,67
556879,355,67
556885,318,67
556900,338,67
556910,356,67
556918,316,67
556931,359,67
556941,337,67
556951,337,67
556962,369,67
556969,332,67
556982,370,67
556993,371,67
557002,358,67
557013,409,67
557021,381,67
557034,406,67
557044,422,67
557051,383,67
557056,404,67
557068,348,67
557084,325,67
557095,341,67
557101,291,67
557115,320,67
557126,313,67
557134,288,67
557147,328,67
557157,292,67
557167,307,67
557172,325,67
557184,290,67
557198,333,67
557208,309,67
557218,303,67
557229,335,67
557234,295,67
557249,327,67
557252,323,67
557268,298,67
557278,341,67
557285,307,67
557300,319,67
557302,334,67
557318,296,67
557325,337,67
557341,314,67
557351,311,67
557351,346,67
557367,304,67
557382,333,67
557385,328,67
557402,307,67
557413,349,67
557423,311,67
557433,335,67
557434,356,67
557450,316,67
557465,354,67
557468,326,67
557485,313,67
557495,347,67
557501,302,67
557516,334,67
557526,331,67
557534,306,67
557547,346,67
557557,312,67
557568,319,67
557578,338,67
557585,303,67
557585,347,67
557609,326,67
557618,330,67
557627,440,68
557634,482,68
557650,425,68
557660,282,68
557668,292,68
557675,344,68
557685,311,68
557701,326,68
557711,345,68
557718,309,68
557727,349,68
557735,330,68
557750,323,68
557763,357,68
557767,319,68
557783,351,68
557793,352,68
557801,329,68
557801,376,68
557824,349,68
557833,372,68
557845,400,68
557850,370,68
557865,418,68
557875,404,68
557885,393,68
557896,408,68
557901,340,68
557916,348,68
557926,330,68
557934,292,68
557934,333,68
557957,298,68
557968,306,68
557979,326,68
557985,288,68
557985,325,68
558008,309,68
558017,298,68
558029,333,68
558035,291,68
558035,321,68
558061,320,68
558068,295,68
558081,338,68
558085,305,68
558100,315,68
558101,334,68
558117,296,68
558132,335,68
558143,313,68
558151,306,68
558151,342,68
558173,298,68
558183,328,68
558185,333,68
558202,305,68
558212,348,68
558224,313,68
558235,325,68
558235,345,68
558252,306,68
558252,345,68
558269,326,68
558286,319,68
558296,362,68
558301,321,68
558317,350,68
558327,346,68
558335,307,68
558347,349,68
558358,314,68
558368,322,68
558379,343,68
558385,300,68
558399,340,68
558401,324,68
558418,311,68
558429,347,68
558434,307,68
558450,332,68
558451,334,68
558468,317,68
558480,410,68
558491,486,68
558501,448,68
558512,321,68
558517,271,68
558533,341,68
558543,321,68
558551,307,68
558563,347,68
558573,307,68
558583,336,68
558586,340,68
558601,310,68
558614,353,68
558618,325,68
558635,332,68
558636,358,68
558650,320,68
558665,365,68
558669,353,68
558686,348,68
558697,394,68
558702,362,68
558717,398,68
558728,408,68
558734,378,68
558748,411,68
558758,352,68
558768,335,68
558775,342,68
558786,290,68
558799,326,68
558810,308,68
558818,296,68
558830,335,68
558840,292,68
558851,319,68
558861,322,68
558868,290,68
558881,333,68
558891,301,68
558901,308,68
558912,335,68
558920,293,68
558933,331,68
558943,316,68
558951,302,68
558963,342,68
558973,302,68
558984,325,68
558994,331,68
559001,298,68
559015,343,68
559018,311,68
559035,316,68
559046,341,68
559053,299,68
559066,339,68
559076,325,68
559086,308,68
559086,348,68
559102,308,68
559118,332,68
559119,338,68
559135,304,68
559148,350,68
559151,316,68
559168,323,68
559178,348,68
559186,304,68
559200,342,68
559210,335,68
559217,320,68
559226,360,68
559235,318,68
559251,329,68
559262,334,68
559268,303,68
559282,348,68
559286,315,68
559301,320,68
559313,347,68
559318,302,68
559333,339,68
559335,327,68
559352,312,68
559364,354,68
559374,310,68
559384,341,68
559386,369,68
559402,451,68
559412,523,68
559417,382,68
559435,262,68
559445,350,68
559452,302,68
559467,340,68
559477,327,68
559486,314,68
559497,355,68
559507,315,68
559518,339,68
559521,349,68
559534,319,68
559549,364,68
559559,334,68
559569,338,68
559579,370,68
559590,332,68
559600,378,68
559611,376,68
559618,368,68
559622,416,68
559635,382,68
559652,412,68
559661,415,68
559669,360,68
559676,376,68
559686,324,68
559702,313,68
559713,331,68
559718,286,68
559733,321,68
559744,307,68
559751,289,68
559764,330,68
559775,292,68
559785,312,68
559786,322,68
559801,289,68
559801,332,68
559818,301,68
559834,305,68
559847,332,68
559851,289,68
559867,327,68
559869,318,68
559886,298,68
559897,339,68
559908,298,68
559917,321,68
559928,330,68
559935,293,68
559935,340,68
559952,310,68
559968,308,68
559979,339,68
559990,297,68
560000,335,68
560010,324,68
560017,306,68
560031,347,68
560034,306,68
560052,327,68
560061,337,68
560068,301,68
560083,343,68
560093,315,68
560101,320,68
560113,346,68
560124,303,68
560134,346,68
560145,339,68
560151,319,68
560165,354,68
560172,306,68
560185,327,68
560187,338,68
560202,299,68
560216,344,68
560218,312,68
560235,312,68
560235,344,68
560257,303,68
560268,339,68
560277,329,68
560286,310,68
560298,353,68
560309,322,68
560318,372,68
560329,507,68
560335,467,68
560335,364,68
560359,269,68
560369,321,68
560380,342,68
560387,303,68
560400,338,68
560411,329,68
560418,310,68
560432,352,68
560435,314,68
560451,335,68
560451,350,68
560468,319,68
560483,365,68
560487,340,68
560501,341,68
560514,377,68
560524,343,68
560535,388,68
560535,391,68
560551,379,68
560551,428,68
560569,395,68
560585,406,68
560589,396,68
560602,333,68
560616,355,68
560627,313,68
560635,305,68
560647,331,68
560651,287,68
560667,321,68
560677,313,68
560687,290,68
560699,332,68
560709,294,68
560718,311,68
560729,326,68
560740,289,68
560750,332,68
560760,307,68
560768,305,68
560781,337,68
560791,294,68
560801,329,68
560812,319,68
560819,297,68
560831,340,68
560836,298,68
560852,315,68
560862,328,68
560868,293,68
560868,337,68
560894,310,68
560901,309,68
560914,340,68
560924,299,68
560934,336,68
560945,326,68
560951,305,68
560965,345,68
560976,306,68
560985,328,68
560987,340,68
561002,300,68
561015,343,68
561027,319,68
561035,315,68
561047,345,68
561058,312,68
561068,347,68
561077,342,68
561087,314,68
561098,348,68
561110,305,68
561118,327,68
561130,341,68
561139,298,68
561151,340,68
561160,316,68
561168,310,68
561181,342,68
561191,299,68
561202,335,68
561202,329,68
561219,307,68
561232,354,68
561243,327,68
561251,449,67
561263,516,67
561273,373,67
561284,283,67
561293,321,67
561301,314,67
561314,348,67
561325,307,67
561335,340,67
561345,334,67
561351,312,67
561351,354,67
561376,320,67
561384,338,67
561397,352,67
561401,318,67
561417,364,67
561427,344,67
561436,344,67
561447,385,67
561451,350,67
561469,391,67
561478,398,67
561488,383,67
561499,430,67
561509,384,67
561517,384,67
561530,376,67
561540,314,67
561550,339,67
561552,307,67
561568,301,67
561582,328,67
561588,285,67
561601,315,67
561612,313,67
561618,287,67
561633,331,67
561634,292,67
561651,307,67
561663,322,67
561668,286,67
561684,327,67
561694,310,67
561702,303,67
561715,338,67
561723,296,67
561735,326,67
561735,322,67
561751,299,67
561766,341,67
561777,306,67
561785,320,67
561797,337,67
561807,300,67
561817,341,67
561827,318,67
561834,311,67
561848,342,67
561851,302,67
561868,332,67
561879,331,67
561888,309,67
561899,349,67
561910,315,67
561918,332,67
561931,347,67
561935,313,67
561950,358,67
561961,333,67
561968,326,67
561981,346,67
561988,305,67
562002,337,67
562012,329,67
562019,306,67
562019,347,67
562035,314,67
562051,326,67
562063,340,67
562074,304,67
562084,345,67
562088,323,67
562102,321,67
562115,364,67
562119,357,67
562135,502,67
562146,440,67
562152,290,67
562166,315,67
562176,313,67
562184,321,67
562188,345,67
562208,307,67
562217,348,67
562227,327,67
562234,324,67
562249,361,67
562258,319,67
562268,352,67
562279,353,67
562288,329,67
562300,376,67
562302,344,67
562318,364,67
562331,391,67
562334,362,67
562351,415,67
562361,398,67
562368,398,67
562382,433,67
562393,382,67
562401,383,67
562413,353,67
562423,309,67
562433,339,67
562444,297,67
562451,308,67
562464,326,67
562474,288,67
562485,326,67
562488,301,67
562501,296,67
562515,330,67
562518,291,67
562534,324,67
562546,321,67
562552,298,67
562567,341,67
562577,304,67
562585,317,67
562597,336,67
562608,297,67
562618,335,67
562629,319,67
562635,308,67
562649,341,67
562653,299,67
562668,331,67
562674,329,67
562689,303,67
562701,347,67
562701,306,67
562718,321,67
562730,338,67
562735,301,67
562752,343,67
562762,320,67
562768,315,67
562782,356,67
562793,315,67
562802,346,67
562802,340,67
562823,302,67
562833,343,67
562844,308,67
562852,322,67
562864,337,67
562875,297,67
562884,339,67
562894,318,67
562901,312,67
562901,344,67
562919,302,67
562935,334,67
562946,334,67
562952,316,67
562952,392,67
562978,468,68
562984,440,68
562998,344,68
563008,261,68
563018,340,68
563029,314,68
563035,312,68
563049,349,68
563060,309,68
563069,339,68
563080,340,68
563090,316,68
563100,359,68
563111,328,68
563119,340,68
563131,365,68
563141,328,68
563151,373,68
563162,359,68
563172,356,68
563183,403,68
563193,372,68
563202,412,68
563214,417,68
563218,390,68
563234,421,68
563244,358,68
563254,345,68
563265,349,68
563274,293,68
563284,329,68
563296,308,68
563301,294,68
563316,331,68
563326,292,68
563334,319,68
563347,317,68
563357,289,68
563367,331,68
563369,298,68
563384,307,68
563398,330,68
563402,294,68
563418,334,68
563430,315,68
563435,306,68
563449,342,68
563460,304,68
563468,327,68
563480,331,68
563491,302,68
563501,342,68
563502,308,68
563519,319,68
563532,340,68
563536,299,68
563552,339,68
563562,320,68
563569,308,68
563583,345,68
563590,302,68
563601,331,68
563613,336,68
563617,307,68
563634,350,68
563644,320,68
563652,334,68
563665,357,68
563676,316,68
563685,349,68
563695,324,68
563701,313,68
563716,346,68
563721,305,68
563735,331,68
563748,334,68
563752,307,68
563768,348,68
563778,315,68
563785,324,68
563799,349,68
563809,312,68
563818,349,68
563829,344,68
563839,409,68
563850,534,68
563861,420,68
563868,288,68
563881,325,68
563891,308,68
563902,350,68
563912,316,68
563919,325,68
563932,352,68
563935,310,68
563952,353,68
563964,338,68
563969,326,68
563984,364,68
563994,325,68
564002,352,68
564014,360,68
564025,333,68
564034,384,68
564045,358,68
564051,374,68
564051,408,68
564076,373,68
564085,420,68
564097,402,68
564106,373,68
564115,383,68
564126,320,68
564136,331,68
564147,324,68
564158,291,68
564168,331,68
564175,299,68
564185,305,68
564190,327,68
564209,287,68
564218,326,68
564229,311,68
564234,297,68
564250,334,68
564261,294,68
564268,321,68
564281,324,68
564292,293,68
564302,337,68
564312,305,68
564322,312,68
564322,337,68
564343,296,68
564352,335,68
564363,318,68
564369,304,68
564383,340,68
564394,300,68
564401,326,68
564401,331,68
564418,299,68
564435,343,68
564445,309,68
564452,317,68
564465,341,68
564476,298,68
564485,337,68
564490,323,68
564503,308,68
564517,347,68
564528,312,68
564534,343,68
564548,347,68
564553,314,68
564569,348,68
564579,310,68
564589,318,68
564599,342,68
564602,299,68
564619,338,68
564630,324,68
564636,309,68
564651,346,68
564660,304,68
564668,330,68
564675,333,68
564690,306,68
564702,356,68
564713,335,68
564718,438,68
564718,528,68
564734,398,68
564753,277,68
564764,320,68
564768,307,68
564784,345,68
564794,305,68
564802,331,68
564802,336,68
564819,308,68
564835,353,68
564836,321,68
564853,328,68
564866,355,68
564877,318,68
564885,358,68
564897,348,68
564907,338,68
564918,383,68
564927,352,68
564935,385,68
564949,401,68
564958,377,68
564969,427,68
564969,391,68
564985,375,68
564991,377,68
565010,312,68
565018,334,68
565031,312,68
565036,290,68
565036,328,68
565062,286,68
565068,309,68
565068,318,68
565091,284,68
565101,330,68
565101,299,68
565118,304,68
565132,329,68
565144,290,68
565152,328,68
565152,314,68
565170,299,68
565179,336,68
565195,297,68
565203,321,68
565213,325,68
565226,291,68
565235,336,68
565235,305,68
565253,310,68
565253,335,68
565277,294,68
565285,330,68
565298,319,68
565302,304,68
565318,340,68
565328,299,68
565335,323,68
565348,330,68
565359,297,68
565369,343,68
565380,311,68
565386,317,68
565392,344,68
565402,304,68
565420,346,68
565431,334,68
565442,319,68
565451,355,68
565462,304,68
565468,327,68
565483,336,68
565493,304,68
565502,343,68
565513,315,68
565523,316,68
565534,343,68
565544,301,68
565552,341,68
565564,334,68
565574,311,68
565584,349,68
565596,318,68
565602,381,68
565616,508,68
565626,437,68
565636,339,68
565646,282,68
565657,321,68
565667,339,68
565678,305,68
565685,339,68
565697,329,68
565708,311,68
565719,353,68
565729,315,68
565735,338,68
565735,349,68
565759,317,68
565769,364,68
565779,335,68
565790,345,68
565800,376,68
565811,342,68
565818,390,68
565832,387,68
565841,378,68
565851,425,68
565862,388,68
565871,397,68
565883,383,68
565893,322,68
565901,349,68
565914,308,68
565921,304,68
565934,332,68
565944,288,68
565951,323,68
565965,310,68
565976,292,68
565985,331,68
565995,295,68
566002,314,68
566002,323,68
566026,289,68
566036,334,68
566036,302,68
566052,307,68
566067,338,68
566069,295,68
566084,331,68
566098,325,68
566109,302,68
566118,342,68
566130,302,68
566135,320,68
566135,335,68
566160,301,68
566168,340,68
566181,314,68
566191,314,68
566201,340,68
566211,300,68
566218,335,68
566231,323,68
566242,308,68
566252,349,68
566263,310,68
566272,336,68
566283,354,68
566292,316,68
566302,356,68
566314,322,68
566319,311,68
566334,342,68
566335,299,68
566351,336,68
566365,328,68
566375,304,68
566385,348,68
566396,311,68
566401,330,68
566417,341,68
566427,313,68
566435,350,68
566435,324,68
566452,335,68
566468,412,67
566478,475,67
566484,430,67
566498,294,67
566502,292,67
566518,352,67
566529,310,67
566536,334,67
566550,344,67
566560,313,67
566568,352,67
566581,328,67
566585,331,67
566601,363,67
566611,319,67
566618,356,67
566631,350,67
566635,335,67
566651,375,67
566661,345,67
566669,376,67
566669,397,67
566694,372,67
566702,424,67
566715,407,67
566724,404,67
566735,418,67
566744,350,67
566752,357,67
566765,333,67
566776,300,67
566785,336,67
566792,294,67
566807,312,67
566816,324,67
566827,288,67
566835,328,67
566835,298,67
566858,299,67
566868,330,67
566878,287,67
566885,325,67
566899,320,67
566901,297,67
566918,335,67
566930,298,67
566940,320,67
566950,328,67
566960,296,67
566968,336,67
566980,309,67
566985,309,67
567001,338,67
567002,294,67
567018,331,67
567033,323,67
567043,300,67
567052,338,67
567063,301,67
567069,319,67
567084,330,67
567093,302,67
567102,343,67
567115,316,67
567125,321,67
567135,353,67
567146,315,67
567151,347,67
567166,328,67
567176,301,67
567184,344,67
567197,307,67
567207,323,67
567217,332,67
567219,299,67
567236,342,67
567249,315,67
567252,315,67
567268,345,67
567279,304,67
567285,339,67
567299,333,67
567302,324,67
567320,438,67
567329,493,67
567335,416,67
567351,292,67
567361,294,67
567368,343,67
567382,317,67
567385,320,67
567402,351,67
567411,312,67
567420,345,67
567433,340,67
567443,322,67
567451,360,67
567464,325,67
567473,344,67
567484,357,67
567495,327,67
567502,372,67
567502,354,67
567526,362,67
567535,402,67
567535,371,67
567552,413,67
567566,411,67
567577,387,67
567585,409,67
567597,343,67
567602,335,67
567618,334,67
567628,290,67
567635,330,67
567648,300,67
567652,298,67
567668,326,67
567679,285,67
567685,321,67
567700,312,67
567709,294,67
567718,335,67
567730,300,67
567741,317,67
567751,331,67
567761,296,67
567771,338,67
567771,316,67
567785,316,67
567802,346,67
567812,302,67
567818,332,67
567827,324,67
567844,303,67
567851,344,67
567864,306,67
567874,320,67
567885,334,67
567894,300,67
567902,342,67
567916,318,67
567926,314,67
567936,347,67
567936,303,67
567952,337,67
567967,332,67
567968,310,67
567986,351,67
567997,321,67
568002,342,67
568018,353,67
568028,316,67
568035,352,67
568049,318,67
568052,317,67
568069,348,67
568080,305,67
568085,337,67
568100,332,67
568103,311,67
568120,349,67
568131,315,67
568141,332,67
568151,347,67
568162,314,67
568168,357,67
568182,343,67
568193,419,68
568202,531,68
568213,423,68
568221,294,68
568234,323,68
568244,311,68
568252,351,68
568252,314,68
568269,330,68
568285,348,68
568295,314,68
568302,358,68
568302,334,68
568326,331,68
568335,366,68
568335,324,68
568353,357,68
568367,356,68
568377,338,68
568385,389,68
568398,360,68
568408,386,68
568418,411,68
568429,384,68
568435,429,68
568449,405,68
568459,380,68
568468,385,68
568480,322,68
568485,337,68
568501,322,68
568503,296,68
568519,337,68
568529,298,68
568542,311,68
568551,325,68
568562,292,68
568570,331,68
568577,308,68
568592,303,68
568603,335,68
568612,292,68
568624,328,68
568634,322,68
568644,300,68
568652,340,68
568665,304,68
568669,321,68
568685,336,68
568695,301,68
568702,342,68
568711,320,68
568722,313,68
568736,344,68
568736,303,68
568752,332,68
568767,330,68
568778,307,68
568785,347,68
568798,313,68
568809,325,68
568818,340,68
568828,302,68
568835,344,68
568835,318,68
568860,313,68
568868,345,68
568880,306,68
568886,336,68
568901,337,68
568911,320,68
568918,360,68
568931,327,68
568942,336,68
568951,338,68
568962,302,68
568969,344,68
568983,322,68
568993,314,68
569002,345,68
569014,307,68
569020,336,68
569020,335,68
569045,312,68
569053,349,68
569065,312,68
569075,328,68
569085,356,68
569096,354,68
569102,516,68
569102,487,68
569119,338,68
569135,299,68
569147,305,68
569158,331,68
569168,329,68
569178,303,68
569185,344,68
569199,310,68
569209,327,68
569218,343,68
569229,307,68
569235,351,68
569250,331,68
569260,328,68
569269,363,68
569269,326,68
569291,365,68
569301,367,68
569312,355,68
569319,409,68
569327,381,68
569335,402,68
569352,421,68
569363,376,68
569368,393,68
569368,343,68
569393,318,68
569402,338,68
569414,290,68
569424,317,68
569435,313,68
569445,287,68
569452,334,68
569465,294,68
569476,306,68
569485,324,68
569496,284,68
569502,326,68
569517,304,68
569527,298,68
569536,332,68
569536,293,68
569558,324,68
569568,319,68
569578,293,68
569585,338,68
569599,300,68
569609,316,68
569619,334,68
569628,295,68
569635,338,68
569650,314,68
569660,308,68
569669,342,68
569680,302,68
569691,333,68
569701,330,68
569712,303,68
569719,346,68
569732,311,68
569743,323,68
569752,340,68
569752,300,68
569769,343,68
569783,322,68
569785,315,68
569803,347,68
569814,306,68
569825,336,68
569835,334,68
569846,316,68
569852,360,68
569866,323,68
569876,336,68
569885,347,68
569896,301,68
569901,341,68
569917,319,68
569927,312,68
569935,344,68
569949,299,68
569952,333,68
569968,332,68
569979,308,68
569986,350,68
569995,313,68
570002,326,68
570019,343,68
570031,316,68
570036,419,68
570050,522,68
570052,481,68
570069,326,68
570082,271,68
570085,337,68
570101,328,68
570112,301,68
570119,347,68
570132,315,68
570143,326,68
570153,346,68
570153,310,68
570169,350,68
570183,332,68
570194,326,68
570202,356,68
570215,321,68
570224,359,68
570236,361,68
570246,343,68
570252,397,68
570265,370,68
570276,393,68
570286,420,68
570297,386,68
570302,415,68
570318,367,68
570319,332,68
570335,347,68
570348,294,68
570352,315,68
570368,310,68
570378,283,68
570385,327,68
570400,291,68
570410,303,68
570419,323,68
570426,283,68
570435,324,68
570451,302,68
570461,295,68
570469,328,68
570481,290,68
570492,319,68
570502,319,68
570513,293,68
570518,335,68
570533,302,68
570542,313,68
570552,334,68
570552,296,68
570574,337,68
570584,316,68
570594,306,68
570603,341,68
570603,302,68
570619,328,68
570635,329,68
570646,301,68
570656,343,68
570666,309,68
570677,318,68
570685,338,68
570697,300,68
570702,339,68
570717,317,68
570728,310,68
570735,349,68
570749,310,68
570751,338,68
570769,335,68
570779,314,68
570785,362,68
570800,327,68
570811,335,68
570819,344,68
570831,301,68
570841,342,68
570851,323,68
570861,311,68
570870,345,68
570882,304,68
570886,333,68
570902,333,68
570913,306,68
570923,345,68
570933,312,68
570935,323,68
570952,346,68
570965,322,68
570969,464,67
570985,517,67
570995,413,67
571002,278,67
571002,300,67
571026,330,67
571035,329,67
571035,303,67
571053,344,67
571066,309,67
571077,323,67
571085,344,67
571097,307,67
571102,348,67
571118,328,67
571127,322,67
571135,360,67
571149,325,67
571159,357,67
571169,361,67
571180,341,67
571185,399,67
571200,371,67
571211,390,67
571219,417,67
571223,377,67
571236,400,67
571251,350,67
571262,317,67
571269,341,67
571283,290,67
571293,311,67
571303,312,67
571303,283,67
571319,324,67
571333,288,67
571335,298,67
571352,314,67
571365,278,67
571369,323,67
571385,302,67
571396,290,67
571402,328,67
571416,287,67
571426,316,67
571435,315,67
571446,288,67
571457,331,67
571467,299,67
571473,311,67
571486,326,67
571498,289,67
571503,329,67
571518,312,67
571529,302,67
571535,338,67
571549,299,67
571560,326,67
571568,326,67
571579,295,67
571586,342,67
571601,307,67
571611,319,67
571618,341,67
571632,302,67
571636,344,67
571652,325,67
571662,318,67
571669,355,67
571669,318,67
571686,344,67
571702,339,67
571714,300,67
571719,344,67
571734,315,67
571736,320,67
571752,342,67
571765,303,67
571772,342,67
571785,328,67
571795,316,67
571805,353,67
571817,312,67
571827,342,67
571836,342,67
571847,329,67
571857,418,67
571868,491,67
571877,439,67
571886,326,67
571898,288,67
571909,353,67
571919,328,67
571929,318,67
571936,357,67
571950,314,67
571960,345,67
571969,348,67
571980,323,67
571986,367,67
572001,337,67
572012,350,67
572019,369,67
572032,337,67
572042,380,67
572052,369,67
572063,369,67
572069,415,67
572083,381,67
572094,419,67
572102,430,67
572114,401,67
572120,431,67
572120,369,67
572135,353,67
572152,355,67
572166,303,67
572176,335,67
572186,317,67
572196,304,67
572202,340,67
572217,299,67
572227,323,67
572236,328,67
572236,300,67
572252,344,67
572268,313,67
572278,322,67
572286,345,67
572298,309,67
572310,348,67
572318,327,67
572329,319,67
572336,354,67
572336,316,67
572360,339,67
572368,344,67
572381,311,67
572391,353,67
572402,318,67
572411,326,67
572419,349,67
572431,308,67
572443,348,67
572452,329,67
572463,319,67
572470,356,67
572470,316,67
572494,341,67
572502,345,67
572512,323,67
572524,363,67
572534,332,67
572545,333,67
572552,346,67
572566,307,67
572576,349,67
572585,328,67
572596,318,67
572602,349,67
572617,311,67
572627,336,67
572636,341,67
572647,314,67
572657,355,67
572668,323,67
572678,332,67
572685,365,67
572699,378,67
572702,517,67
572718,412,67
572730,282,67
572735,336,67
572751,312,67
572760,338,67
572768,343,67
572781,315,67
572786,359,67
572802,331,67
572812,335,67
572819,360,67
572833,321,67
572836,357,67
572852,342,67
572863,336,67
572869,373,67
572884,339,67
572886,372,67
572902,384,67
572915,366,67
572924,418,67
572936,391,67
572947,403,67
572952,425,67
572966,366,67
572976,379,67
572985,333,67
572997,306,67
573002,333,67
573018,287,67
573028,311,67
573036,313,67
573049,282,67
573059,325,67
573068,291,67
573078,299,67
573086,323,67
573099,283,67
573110,325,67
573120,304,67
573120,296,67
573135,333,67
573151,290,67
573161,321,67
573169,321,67
573169,295,67
573186,336,67
573202,302,67
573212,311,67
573219,331,67
573227,291,67
573243,331,67
573252,315,67
573264,304,67
573275,339,67
573284,299,67
573294,324,67
573302,324,67
573315,297,67
573325,340,67
573335,306,67
573346,321,67
573352,345,67
573367,306,67
573369,342,67
573385,314,67
573397,302,67
573402,337,67
573417,295,67
573427,320,67
573435,321,67
573449,295,67
573459,338,67
573469,305,67
573477,316,67
573485,336,67
573500,298,67
573502,337,67
573519,329,67
573531,341,67
573536,484,68
573536,438,68
573561,370,68
573569,279,68
573569,301,68
573593,340,68
573602,310,68
573612,317,68
573619,343,68
573627,303,68
573644,342,68
573652,327,68
573665,319,68
573669,356,68
573684,316,68
573695,344,68
573702,349,68
573716,324,68
573726,370,68
573736,345,68
573746,363,68
573756,396,68
573767,365,68
573777,410,68
573786,398,68
573797,378,68
573803,391,68
573819,326,68
573828,330,68
573836,321,68
573848,286,68
573859,327,68
573869,292,68
573880,299,68
573887,322,68
573901,283,68
573910,318,68
573921,300,68
573921,290,68
573935,326,68
573951,283,68
573962,309,68
573969,315,68
573982,286,68
573993,328,68
574002,297,68
574013,306,68
574023,330,68
574034,287,68
574044,329,68
574052,313,68
574064,299,68
574074,336,68
574085,296,68
574086,322,68
574103,324,68
574103,296,68
574126,339,68
574136,307,68
574136,314,68
574153,336,68
574163,296,68
574169,334,68
574186,316,68
574198,311,68
574208,352,68
574218,312,68
574229,336,68
574235,331,68
574250,299,68
574260,344,68
574270,312,68
574273,320,68
574286,341,68
574299,299,68
574311,339,68
574319,323,68
574332,307,68
574336,346,68
574352,308,68
574362,336,68
574369,343,68
574369,326,68
574385,457,68
574403,478,68
574403,411,68
574419,292,68
574434,299,68
574444,341,68
574453,326,68
574453,311,68
574469,349,68
574486,311,68
574496,337,68
574503,340,68
574516,312,68
574527,358,68
574536,326,68
574547,333,68
574557,358,68
574568,320,68
574578,363,68
574586,358,68
574599,354,68
574608,400,68
574618,370,68
574629,403,68
574636,414,68
574650,380,68
574653,402,68
574669,342,68
574680,331,68
574686,339,68
574701,292,68
574703,328,68
574719,312,68
574729,295,68
574736,335,68
574752,294,68
574762,319,68
574769,325,68
574783,295,68
574793,337,68
574803,305,68
574813,313,68
574824,336,68
574835,293,68
574836,333,68
574852,321,68
574866,306,68
574873,344,68
574886,304,68
574887,329,68
574902,334,68
574917,306,68
574928,348,68
574936,317,68
574936,322,68
574958,348,68
574968,308,68
574979,344,68
574985,331,68
574999,316,68
575003,355,68
575019,312,68
575029,334,68
575036,340,68
575050,308,68
575061,350,68
575069,322,68
575081,328,68
575086,353,68
575101,315,68
575103,357,68
575120,341,68
575130,326,68
575143,359,68
575152,308,68
575162,333,68
575170,339,68
575176,308,68
575194,349,68
575202,316,68
575214,323,68
575225,347,68
575235,303,68
575245,344,68
575252,331,68
575252,316,68
575270,354,68
575286,325,68
575297,411,68
575303,521,68
575317,443,68
575328,321,68
575336,295,68
575348,325,68
575358,344,68
575368,305,68
575379,344,68
575385,330,68
575399,319,68
575409,356,68
575419,317,68
575430,342,68
575435,350,68
575450,321,68
575461,366,68
575469,337,68
575481,345,68
575486,378,68
575502,342,68
575513,391,68
575519,386,68
575532,380,68
575542,427,68
575552,388,68
575563,400,68
575571,378,68
575584,322,68
575586,346,68
575602,305,68
575615,305,68
575625,329,68
575635,287,68
575636,325,68
575653,310,68
575667,292,68
575676,334,68
575686,295,68
575697,315,68
575707,324,68
575717,290,68
575728,333,68
575736,304,68
575749,307,68
575758,334,68
575769,293,68
575778,329,68
575786,317,68
575800,303,68
575810,342,68
575819,301,68
575831,323,68
575840,330,68
575851,298,68
575861,338,68
575870,310,68
575870,315,68
575887,339,68
575902,299,68
575912,337,68
575919,324,68
575933,310,68
575943,348,68
575952,308,68
575964,332,68
575969,337,68
575985,304,68
575994,345,68
576003,316,68
576003,320,68
576020,345,68
576036,311,68
576046,350,68
576053,340,68
576066,320,68
576077,347,68
576086,305,68
576097,329,68
576102,338,68
576118,306,68
576128,347,68
576135,317,68
576149,319,68
576160,345,68
576169,304,68
576180,343,68
576187,332,68
576199,316,68
576210,358,68
576219,333,68
576230,464,67
576235,527,67
576251,390,67
576261,279,67
576269,318,67
576282,317,67
576292,342,67
576302,302,67
576313,341,67
576319,330,67
576333,312,67
576344,355,67
576352,313,67
576364,336,67
576374,348,67
576385,317,67
576395,363,67
576403,337,67
576416,344,67
576426,379,67
576436,347,67
576446,396,67
576452,392,67
576467,383,67
576478,430,67
576486,387,67
576498,390,67
576503,369,67
576518,312,67
576528,338,67
576537,301,67
576537,298,67
576559,324,67
576569,283,67
576579,318,67
576587,307,67
576599,292,67
576603,332,67
576619,290,67
576630,311,67
576641,321,67
576652,285,67
576661,329,67
576671,301,67
576682,306,67
576693,332,67
576703,291,67
576714,328,67
576720,320,67
576720,301,67
576737,340,67
576753,299,67
576762,321,67
576769,331,67
576784,299,67
576796,344,67
576802,313,67
576816,315,67
576819,341,67
576836,299,67
576847,335,67
576853,324,67
576867,305,67
576877,344,67
576886,303,67
576898,326,67
576908,333,67
576918,299,67
576929,344,67
576936,320,67
576949,320,67
576954,348,67
576969,314,67
576980,348,67
576986,340,67
577001,318,67
577011,350,67
577019,307,67
577032,328,67
577042,338,67
577052,301,67
577053,344,67
577069,314,67
577083,314,67
577086,344,67
577104,302,67
577114,335,67
577124,326,67
577134,308,67
577144,353,67
577153,331,67
577165,456,66
577175,517,66
577186,375,66
577196,281,66
577202,317,66
577216,315,66
577221,342,66
577236,302,66
577248,339,66
577253,329,66
577267,312,66
577278,350,66
577287,317,66
577287,337,66
577303,350,66
577319,317,66
577328,364,66
577336,341,66
577336,344,66
577353,380,66
577369,350,66
577369,394,66
577387,395,66
577387,383,66
577403,426,66
577421,389,66
577432,386,66
577436,369,66
577452,313,66
577453,342,66
577470,306,66
577482,298,66
577486,327,66
577503,285,66
577514,319,66
577524,310,66
577535,291,66
577545,332,66
577552,296,66
577565,314,66
577573,325,66
577585,289,66
577587,331,66
577603,306,66
577603,306,66
577626,337,66
577636,297,66
577647,329,66
577658,319,66
577668,301,66
577676,339,66
577686,306,66
577699,322,66
577703,335,66
577719,300,66
577729,340,66
577736,315,66
577750,313,66
577761,344,66
577769,301,66
577781,336,66
577791,327,66
577801,307,66
577812,346,66
577819,309,66
577832,332,66
577843,345,66
577852,309,66
577862,358,66
577869,333,66
577883,331,66
577894,353,66
577903,299,66
577903,332,66
577919,325,66
577935,305,66
577945,344,66
577953,305,66
577953,323,66
577976,333,66
577986,298,66
577996,341,66
578003,316,66
578017,316,66
578026,344,66
578036,316,66
578048,379,66
578053,484,67
578069,424,67
578070,347,67
578086,277,67
578098,332,67
578104,337,67
578119,310,67
578119,352,67
578136,326,67
578150,325,67
578160,359,67
578170,318,67
578181,352,67
578191,346,67
578202,324,67
578212,371,67
578219,337,67
578232,360,67
578243,376,67
578252,349,67
578264,403,67
578269,388,67
578284,391,67
578286,428,67
578304,389,67
578315,411,67
578322,377,67
578335,328,67
578346,349,67
578353,301,67
578366,310,67
578376,323,67
578386,285,67
578397,327,67
578404,301,67
578417,295,67
578428,326,67
578435,284,67
578448,318,67
578458,315,67
578469,297,67
578479,337,67
578485,303,67
578500,321,67
578504,333,67
578519,296,67
578529,339,67
578536,315,67
578536,314,67
578561,343,67
578570,303,67
578582,332,67
578592,328,67
578602,306,67
578604,346,67
578620,310,67
578633,325,67
578636,342,67
578653,307,67
578662,352,67
578669,326,67
578684,321,67
578686,359,67
578703,319,67
578712,353,67
578725,340,67
578736,310,67
578737,347,67
578753,311,67
578766,327,67
578776,342,67
578785,302,67
578798,343,67
578804,321,67
578817,314,67
578825,347,67
578836,309,67
578836,341,67
578853,335,67
578869,320,67
578879,383,67
578886,452,67
578886,461,67
578910,363,67
578920,258,67
578930,349,67
578941,318,67
578951,316,67
578962,351,67
578969,311,67
578982,341,67
578986,343,67
579002,321,67
579013,363,67
579022,330,67
579033,346,67
579043,368,67
579053,332,67
579063,376,67
579070,358,67
579084,362,67
579086,405,67
579104,376,67
579116,414,67
579126,419,67
579136,398,67
579145,431,67
579152,369,67
579152,356,67
579170,355,67
579185,304,67
579198,336,67
579205,315,67
579219,303,67
579229,337,67
579236,297,67
579249,324,67
579254,320,67
579269,293,67
579279,334,67
579286,302,67
579286,315,67
579305,338,67
579319,303,67
579331,340,67
579336,323,67
579352,315,67
579362,351,67
579369,312,67
579382,338,67
579392,338,67
579402,311,67
579413,353,67
579423,317,67
579423,328,67
579435,348,67
579453,311,67
579464,351,67
579475,331,67
579485,322,67
579495,360,67
579504,320,67
579504,346,67
579526,350,67
579536,329,67
579547,371,67
579553,335,67
579562,338,67
579577,348,67
579586,314,67
579598,354,67
579605,334,67
579619,323,67
579620,358,67
579637,319,67
579648,348,67
579654,349,67
579669,318,67
579680,362,67
579685,331,67
579701,343,67
579711,374,67
579719,419,68
579731,526,68
579742,429,68
579752,273,68
579763,349,68
579769,314,68
579773,345,68
579793,347,68
579802,316,68
579813,361,68
579820,331,68
579826,340,68
579845,364,68
579853,324,68
579853,364,68
579875,349,68
579885,338,68
579895,378,68
579905,341,68
579916,375,68
579927,386,68
579936,364,68
579947,414,68
579953,392,68
579967,402,68
579978,419,68
579986,361,68
579999,372,68
580005,334,68
580019,308,68
580028,338,68
580036,293,68
580049,320,68
580060,321,68
580069,292,68
580081,334,68
580087,298,68
580101,307,68
580111,328,68
580119,286,68
580132,325,68
580142,310,68
580152,296,68
580153,333,68
580169,294,68
580183,320,68
580186,324,68
580202,295,68
580205,336,68
580220,305,68
580228,311,68
580245,335,68
580253,294,68
580263,331,68
580270,315,68
580286,299,68
580296,337,68
580306,297,68
580312,320,68
580320,326,68
580335,298,68
580346,340,68
580358,310,68
580367,322,68
580378,346,68
580387,305,68
580387,342,68
580406,314,68
580419,299,68
580429,341,68
580436,299,68
580450,322,68
580460,326,68
580469,296,68
580480,338,68
580486,309,68
580501,314,68
580512,339,68
580519,296,68
580532,334,68
580542,331,68
580553,334,68
580562,481,68
580570,447,68
580570,367,68
580594,273,68
580603,294,68
580612,333,68
580620,303,68
580620,307,68
580639,334,68
580654,295,68
580665,335,68
580676,323,68
580686,308,68
580696,348,68
580706,308,68
580706,335,68
580727,345,68
580736,316,68
580748,363,68
580758,343,68
580769,358,68
580778,393,68
580787,362,68
580799,408,68
580809,400,68
580819,373,68
580830,388,68
580836,321,68
580850,327,68
580860,321,68
580869,282,68
580882,323,68
580886,293,68
580902,293,68
580906,322,68
580920,280,68
580930,314,68
580937,304,68
580952,284,68
580963,327,68
580971,285,68
580983,305,68
580994,316,68
581003,280,68
581015,323,68
581024,296,68
581034,295,68
581045,325,68
581053,285,68
581053,324,68
581073,313,68
581086,294,68
581097,334,68
581107,297,68
581117,318,68
581127,327,68
581136,294,68
581148,336,68
581158,310,68
581169,308,68
581172,338,68
581186,294,68
581186,330,68
581209,321,68
581220,301,68
581220,344,68
581236,305,68
581251,323,68
581253,344,68
581269,308,68
581282,353,68
581291,323,68
581302,311,68
581312,339,68
581319,299,68
581333,335,68
581344,325,68
581353,304,68
581353,342,68
581369,303,68
581383,322,68
581395,337,68
581403,299,68
581416,343,68
581419,322,68
581435,324,68
581446,369,68
581453,432,68
581466,520,68
581474,415,68
581486,244,68
581497,348,68
581507,310,68
581518,323,68
581521,336,68
581536,302,68
581536,346,68
581553,321,68
581569,319,68
581575,350,68
581586,309,68
581600,344,68
581610,340,68
581620,319,68
581631,363,68
581636,330,68
581652,353,68
581661,380,68
581671,353,68
581681,406,68
581692,392,68
581702,392,68
581713,422,68
581720,356,68
581720,363,68
581737,336,68
581753,298,68
581764,331,68
581770,290,68
581784,306,68
581795,320,68
581803,282,68
581815,324,68
581825,301,68
581836,294,68
581846,329,68
581854,286,68
581866,317,68
581877,316,68
581886,289,68
581897,333,68
581907,298,68
581917,314,68
581922,329,68
581936,295,68
581949,337,68
581953,312,68
581969,306,68
581979,339,68
581986,298,68
582000,330,68
582007,327,68
582020,303,68
582031,345,68
582037,309,68
582051,322,68
582062,337,68
582069,300,68
582082,341,68
582093,317,68
582103,311,68
582112,346,68
582121,303,68
582121,336,68
582137,332,68
582153,308,68
582164,351,68
582169,317,68
582185,328,68
582195,349,68
582203,317,68
582216,356,68
582226,335,68
582236,322,68
582247,347,68
582253,305,68
582267,336,68
582277,332,68
582285,304,68
582298,346,68
582308,309,68
582319,324,68
582328,342,68
582336,302,68
582336,346,68
582353,325,68
582369,316,68
582369,355,68
582386,337,68
582400,488,67
582410,518,67
582420,366,67
582427,288,67
582441,321,67
582451,323,67
582462,344,67
582469,308,67
582469,351,67
582493,333,67
582502,321,67
582513,358,67
582522,317,67
582530,346,67
582544,349,67
582553,325,67
582557,369,67
582569,338,67
582585,354,67
582587,382,67
582603,353,67
582615,402,67
