Timestamp,ECGValue,BPM
461705,306,64
461722,349,64
461731,308,64
461746,321,64
461754,339,64
461764,301,64
461771,346,64
461787,321,64
461797,314,64
461805,350,64
461818,313,64
461826,363,64
461838,465,65
461849,464,65
461859,418,65
461870,257,65
461879,323,65
461887,341,65
461900,298,65
461905,342,65
461920,322,65
461931,314,65
461937,351,65
461951,307,65
461961,340,65
461971,344,65
461982,316,65
461989,361,65
462002,325,65
462004,337,65
462021,365,65
462033,331,65
462044,380,65
462054,368,65
462065,367,65
462074,412,65
462085,372,65
462095,403,65
462105,398,65
462105,349,65
462122,365,65
462132,317,65
462146,315,65
462155,329,65
462167,286,65
462172,325,65
462188,306,65
462198,293,65
462204,330,65
462218,289,65
462229,313,65
462238,317,65
462249,286,65
462255,332,65
462255,299,65
462280,306,65
462288,333,65
462300,294,65
462305,331,65
462322,317,65
462322,300,65
462338,342,65
462338,300,65
462362,325,65
462371,333,65
462383,301,65
462388,342,65
462404,313,65
462413,315,65
462421,340,65
462434,300,65
462444,338,65
462454,325,65
462465,310,65
462474,350,65
462486,310,65
462495,333,65
462505,340,65
462516,306,65
462526,349,65
462537,317,65
462546,319,65
462555,347,65
462567,305,65
462578,342,65
462588,333,65
462599,311,65
462605,352,65
462619,311,65
462629,334,65
462638,346,65
462649,309,65
462655,353,65
462670,323,65
462681,325,65
462687,353,65
462701,309,65
462705,347,65
462721,348,65
462732,329,65
462738,369,65
462752,326,65
462755,336,65
462771,344,65
462783,306,65
462787,350,65
462803,323,65
462812,320,65
462821,350,65
462834,304,65
462844,340,65
462855,331,65
462865,310,65
462875,355,65
462886,316,65
462888,340,65
462904,367,65
462916,433,64
462922,542,64
462937,423,64
462947,255,64
462955,351,64
462955,305,64
462971,339,64
462987,333,64
462998,310,64
463004,353,64
463019,316,64
463029,338,64
463038,354,64
463050,315,64
463060,360,64
463071,336,64
463080,333,64
463087,371,64
463100,329,64
463111,368,64
463121,372,64
463132,355,64
463138,407,64
463153,378,64
463163,400,64
463171,421,64
463183,376,64
463193,401,64
463204,353,64
463214,327,64
463221,345,64
463235,296,64
463244,323,64
463254,318,64
463266,292,64
463271,338,64
463285,301,64
463296,316,64
463305,333,64
463317,291,64
463324,336,64
463337,313,64
463337,303,64
463355,340,64
463368,298,64
463378,328,64
463388,328,64
463398,300,64
463405,345,64
463420,308,64
463426,319,64
463438,339,64
463451,298,64
463458,340,64
463471,321,64
463481,310,64
463488,346,64
463488,304,64
463505,333,64
463521,334,64
463532,305,64
463538,349,64
463553,313,64
463564,322,64
463571,347,64
463584,304,64
463594,346,64
463605,326,64
463614,317,64
463625,355,64
463635,312,64
463645,340,64
463655,344,64
463665,313,64
463672,359,64
463686,326,64
463688,331,64
463705,355,64
463718,312,64
463728,352,64
463737,336,64
463748,320,64
463755,364,64
463755,322,64
463779,348,64
463788,357,64
463799,332,64
463804,377,64
463820,343,64
463830,341,64
463838,358,64
463851,316,64
463854,354,64
463871,335,64
463882,320,64
463888,359,64
463888,315,64
463912,340,64
463921,344,64
463921,315,64
463938,359,64
463938,325,64
463964,330,64
463971,364,64
463983,398,64
463994,557,63
464004,492,63
464015,272,63
464021,334,63
464036,314,63
464045,332,63
464054,343,63
464066,312,63
464077,355,63
464087,325,63
464098,329,63
464104,356,63
464104,315,63
464121,355,63
464137,343,63
464148,327,63
464158,371,63
464169,334,63
464178,359,63
464188,377,63
464199,350,63
464205,406,63
464220,384,63
464224,395,63
464238,430,63
464251,383,63
464254,406,63
464272,372,63
464282,324,63
464287,349,63
464287,299,63
464312,314,63
464321,326,63
464321,289,63
464338,332,63
464353,302,63
464363,303,63
464371,337,63
464384,292,63
464388,327,63
464405,319,63
464414,299,63
464424,340,63
464435,298,63
464446,317,63
464455,332,63
464466,293,63
464472,336,63
464487,310,63
464488,307,63
464506,339,63
464518,296,63
464521,329,63
464538,322,63
464548,301,63
464555,344,63
464569,305,63
464579,321,63
464588,334,63
464599,300,63
464605,342,63
464620,319,63
464630,316,63
464638,349,63
464651,303,63
464654,335,63
464671,330,63
464682,304,63
464692,349,63
464703,312,63
464713,325,63
464722,342,63
464734,302,63
464744,344,63
464754,327,63
464764,315,63
464771,356,63
464785,318,63
464795,350,63
464804,350,63
464804,317,63
464821,349,63
464830,310,63
464847,326,63
464855,343,63
464867,302,63
464872,343,63
464887,320,63
464898,311,63
464905,346,63
464913,303,63
464921,333,63
464938,333,63
464949,305,63
464955,359,63
464963,395,63
464971,524,63
464988,493,63
464988,257,63
465011,313,63
465021,323,63
465031,304,63
465038,343,63
465038,299,63
465062,330,63
465072,336,63
465072,306,63
465089,352,63
465089,319,63
465106,328,63
465121,352,63
465134,313,63
465138,357,63
465154,343,63
465165,335,63
465172,382,63
465185,348,63
465196,383,63
465205,398,63
465216,373,63
465226,422,63
465237,387,63
465247,376,63
465254,377,63
465267,310,63
465274,335,63
465287,308,63
465297,287,63
465304,327,63
465318,285,63
465329,308,63
465338,316,63
465349,281,63
465354,325,63
465369,295,63
465380,298,63
465388,324,63
465401,286,63
465405,325,63
465421,310,63
465432,296,63
465439,338,63
465439,292,63
465455,317,63
465471,326,63
465483,291,63
465489,334,63
465503,304,63
465514,305,63
465522,331,63
465534,288,63
465538,327,63
465554,318,63
465554,300,63
465572,341,63
465587,297,63
465589,321,63
465605,330,63
465616,294,63
465622,338,63
465636,310,63
465647,312,63
465655,342,63
465662,297,63
465678,335,63
465687,328,63
465698,303,63
465705,349,63
465719,317,63
465729,337,63
465738,349,63
465748,309,63
465760,340,63
465771,311,63
465780,316,63
465789,343,63
465801,299,63
465811,333,63
465822,324,63
465827,301,63
465838,344,63
465853,303,63
465863,323,63
465872,341,63
465872,302,63
465894,355,63
465904,373,63
465914,500,63
465921,514,63
465934,303,63
465938,287,63
465955,334,63
465964,299,63
465972,344,63
465972,306,63
465996,324,63
466004,339,63
466017,304,63
466022,347,63
466022,324,63
466048,321,63
466055,356,63
466064,312,63
466073,353,63
466088,350,63
466099,332,63
466104,380,63
466119,350,63
466130,378,63
466138,406,63
466150,372,63
466155,424,63
466171,400,63
466181,379,63
466190,386,63
466190,319,63
466208,334,63
466221,318,63
466232,288,63
466238,328,63
466252,287,63
466263,303,63
466271,320,63
466284,280,63
466293,323,63
466304,302,63
466314,293,63
466324,330,63
466335,288,63
466345,320,63
466354,318,63
466365,293,63
466372,335,63
466386,301,63
466397,312,63
466405,331,63
466417,291,63
466427,335,63
466438,316,63
466448,304,63
466456,338,63
466456,297,63
466472,324,63
466489,329,63
466489,300,63
466506,344,63
466520,310,63
466530,320,63
466537,342,63
466537,302,63
466555,342,63
466571,323,63
466581,311,63
466589,350,63
466602,308,63
466612,334,63
466621,343,63
466633,318,63
466638,359,63
466638,326,63
466655,322,63
466671,336,63
466684,298,63
466694,341,63
466704,320,63
466712,303,63
466722,344,63
466736,302,63
466738,330,63
466754,335,63
466766,301,63
466771,347,63
466787,318,63
466789,326,63
466805,364,63
466818,421,63
466828,541,63
466838,431,63
466849,233,63
466855,342,63
466869,305,63
466879,325,63
466889,336,63
466899,303,63
466910,350,63
466920,321,63
466931,322,63
466938,355,63
466951,315,63
466961,354,63
466971,342,63
466982,327,63
466989,371,63
467001,335,63
467013,362,63
467022,379,63
467033,354,63
467038,409,63
467053,392,63
467055,402,63
467072,432,63
467084,383,63
467094,398,63
467104,359,63
467114,319,63
467122,346,63
467135,295,63
467146,314,63
467155,324,63
467167,286,63
467172,330,63
467187,303,63
467197,302,63
467204,333,63
467218,291,63
467222,326,63
467238,319,63
467238,296,63
467254,338,63
467269,300,63
467271,317,63
467288,328,63
467290,294,63
467305,337,63
467321,312,63
467321,310,63
467338,341,63
467351,296,63
467362,331,63
467372,325,63
467372,302,63
467390,343,63
467403,303,63
467412,322,63
467422,337,63
467422,299,63
467438,345,63
467454,322,63
467463,316,63
467472,348,63
467472,306,63
467495,337,63
467504,330,63
467516,307,63
467521,350,63
467536,314,63
467546,333,63
467555,358,63
467567,316,63
467577,358,63
467587,325,63
467598,312,63
467605,346,63
467618,302,63
467624,332,63
467638,329,63
467649,304,63
467656,346,63
467669,310,63
467671,322,63
467688,342,63
467701,304,63
467711,348,63
467721,330,63
467732,336,63
467738,483,63
467752,494,63
467762,414,63
467771,264,63
467774,305,63
467793,346,63
467803,310,63
467813,322,63
467822,341,63
467834,306,63
467844,348,63
467854,329,63
467865,320,63
467875,355,63
467885,314,63
467895,345,63
467905,350,63
467905,322,63
467926,372,63
467937,344,63
467947,360,63
467955,391,63
467967,361,63
467977,412,63
467988,399,63
467997,389,63
468005,417,63
468018,351,63
468029,354,63
468038,338,63
468049,296,63
468060,332,63
468070,299,63
468080,302,63
468088,327,63
468100,283,63
468111,324,63
468121,309,63
468131,294,63
468137,335,63
468137,293,63
468156,318,63
468172,326,63
468172,294,63
468192,339,63
468192,310,63
468206,312,63
468222,338,63
468234,297,63
468238,335,63
468254,319,63
468265,304,63
468272,339,63
468285,299,63
468292,321,63
468304,331,63
468304,296,63
468322,342,63
468337,312,63
468339,314,63
468355,345,63
468368,301,63
468372,336,63
468388,325,63
468398,306,63
468405,347,63
468412,309,63
468429,330,63
468438,341,63
468438,315,63
468455,358,63
468470,330,63
468472,328,63
468488,344,63
468502,298,63
468505,336,63
468521,323,63
468531,306,63
468538,345,63
468553,303,63
468562,326,63
468572,343,63
468572,306,63
468593,348,63
468604,319,63
468614,322,63
468622,358,63
468622,337,63
468639,481,63
468655,470,63
468665,335,63
468673,295,63
468686,310,63
468692,323,63
468705,336,63
468714,303,63
468722,350,63
468738,322,63
468747,321,63
468754,355,63
468767,315,63
468778,351,63
468788,349,63
468799,328,63
468805,372,63
468819,338,63
468830,356,63
468838,383,63
468850,350,63
468861,402,63
468871,387,63
468872,393,63
468888,428,63
468902,386,63
468906,403,63
468922,372,63
468922,325,63
468939,351,63
468939,303,63
468964,310,63
468972,325,63
468984,284,63
468994,326,63
469004,302,63
469015,295,63
469022,332,63
469022,287,63
469045,316,63
469054,314,63
469066,291,63
469071,332,63
469086,296,63
469097,312,63
469105,328,63
469117,290,63
469127,334,63
469137,311,63
469148,303,63
469156,341,63
469156,297,63
469179,325,63
469188,324,63
469199,299,63
469205,341,63
469220,306,63
469230,314,63
469238,336,63
469250,297,63
469256,337,63
469271,323,63
469281,311,63
469289,345,63
469302,314,63
469305,344,63
469323,343,63
469333,306,63
469338,342,63
469338,310,63
469363,316,63
469372,338,63
469384,297,63
469393,337,63
469404,316,63
469415,306,63
469422,345,63
469435,303,63
469438,330,63
469455,337,63
469467,306,63
469472,361,63
469487,372,63
469497,477,63
469505,429,63
469505,272,63
469527,316,63
469538,319,63
469539,307,63
469555,349,63
469569,308,63
469579,332,63
469589,340,63
469593,314,63
469605,358,63
469615,326,63
469621,335,63
469638,362,63
469651,324,63
469661,365,63
469671,359,63
469682,347,63
469688,395,63
469702,366,63
469713,396,63
469722,411,63
469732,384,63
469738,430,63
469753,394,63
469755,375,63
469771,375,63
469784,313,63
469795,337,63
469804,316,63
469813,292,63
469822,330,63
469835,291,63
469846,309,63
469854,321,63
469866,285,63
469872,331,63
469887,301,63
469892,303,63
469905,334,63
469918,292,63
469921,331,63
469938,322,63
469938,302,63
469955,343,63
469965,306,63
469972,325,63
469989,339,63
470000,300,63
470005,342,63
470020,317,63
470031,314,63
470038,346,63
470051,299,63
470062,336,63
470071,325,63
470081,307,63
470089,349,63
470093,307,63
470105,328,63
470122,341,63
470134,307,63
470138,357,63
470154,330,63
470155,325,63
470173,351,63
470185,300,63
470193,336,63
470205,328,63
470215,304,63
470221,346,63
470221,308,63
470246,325,63
470256,337,63
470266,303,63
470273,349,63
470287,323,63
470293,321,63
470305,350,63
470318,318,63
470326,408,63
470338,506,63
470349,404,63
470356,316,63
470369,291,63
470380,325,63
470388,345,63
470400,308,63
470410,352,63
470421,329,63
470431,324,63
470438,360,63
470452,318,63
470461,348,63
470471,344,63
470472,323,63
470489,367,63
470502,333,63
470504,349,63
470522,375,63
470534,341,63
470544,392,63
470554,381,63
470562,379,63
470571,420,63
470586,382,63
470595,406,63
470605,383,63
470615,328,63
470622,357,63
470636,306,63
470647,307,63
470655,327,63
470668,286,63
470676,325,63
470688,304,63
470698,295,63
470705,331,63
470714,290,63
470722,322,63
470738,324,63
470750,294,63
470755,338,63
470770,307,63
470780,314,63
470788,337,63
470800,293,63
470811,332,63
470822,316,63
470832,303,63
470839,342,63
470852,299,63
470862,325,63
470871,328,63
470873,297,63
470893,344,63
470903,309,63
470913,317,63
470922,341,63
470922,302,63
470944,341,63
470954,324,63
470964,311,63
470971,350,63
470971,305,63
470993,336,63
471006,350,63
471016,317,63
471022,358,63
471037,322,63
471046,314,63
471055,343,63
471068,302,63
471078,339,63
471088,324,63
471098,307,63
471105,345,63
471105,305,63
471123,331,63
471138,336,63
471149,303,63
471155,350,63
471165,320,63
471181,333,63
471188,413,64
471201,472,64
471206,456,64
471222,306,64
471232,278,64
471239,345,64
471252,301,64
471263,321,64
471271,334,64
471283,300,64
471293,348,64
471303,320,64
471314,319,64
471321,350,64
471335,310,64
471339,347,64
471355,339,64
471365,320,64
471375,365,64
471385,333,64
471396,359,64
471405,379,64
471417,350,64
471422,403,64
471437,386,64
471448,387,64
471455,413,64
471468,352,64
471476,361,64
471488,334,64
471499,299,64
471506,336,64
471514,296,64
471530,313,64
471538,327,64
471550,289,64
471555,333,64
471571,308,64
471581,303,64
471588,335,64
471601,291,64
471612,323,64
471622,318,64
471626,296,64
471638,340,64
471653,302,64
471663,317,64
471671,334,64
471683,295,64
471688,338,64
471704,315,64
471705,310,64
471722,344,64
471735,299,64
471739,334,64
471755,332,64
471766,304,64
471772,346,64
471786,311,64
471794,324,64
471806,341,64
471816,300,64
471827,344,64
471837,323,64
471848,316,64
471856,350,64
471863,306,64
471871,335,64
471888,334,64
471894,307,64
471906,352,64
471919,316,64
471930,328,64
471939,358,64
471951,315,64
471956,359,64
471971,336,64
471981,313,64
471989,348,64
472002,307,64
472006,334,64
472023,336,64
472033,304,64
472040,346,64
472053,312,64
472063,322,64
472072,347,64
472085,304,64
472094,344,64
472104,324,64
472114,327,64
472121,388,64
472135,455,65
472146,486,65
472155,380,65
472166,251,65
472174,348,65
472186,310,65
472197,317,65
472205,344,65
472217,302,65
472222,340,65
472238,329,65
472248,314,65
472255,354,65
472264,316,65
472279,343,65
472289,350,65
472294,321,65
472305,368,65
472320,339,65
472322,350,65
472338,385,65
472350,352,65
472361,398,65
472371,392,65
472382,383,65
472388,422,65
472402,370,65
472412,369,65
472421,359,65
472433,305,65
472439,338,65
472454,306,65
472455,301,65
472472,332,65
472475,290,65
472495,325,65
472504,316,65
472514,294,65
472522,334,65
472536,296,65
472539,314,65
472555,330,65
472566,290,65
472572,335,65
472586,308,65
472598,304,65
472605,336,65
472617,295,65
472627,332,65
472638,322,65
472648,301,65
472655,346,65
472669,305,65
472679,323,65
472688,338,65
472696,300,65
472705,343,65
472720,315,65
472723,312,65
472738,343,65
472751,300,65
472755,336,65
472772,330,65
472782,306,65
472789,351,65
472802,309,65
472813,327,65
472822,344,65
472833,305,65
472844,347,65
472854,322,65
472864,316,65
472872,351,65
472885,306,65
472895,340,65
472905,333,65
472915,308,65
472921,350,65
472936,314,65
472946,329,65
472956,348,65
472956,317,65
472972,359,65
472987,337,65
472996,325,65
473006,351,65
473016,309,65
473028,340,65
473038,336,65
473049,311,65
473055,351,65
473070,314,65
473080,327,65
473088,350,65
473100,307,65
473110,352,65
473120,331,65
473126,321,65
473138,367,65
473142,358,65
473162,509,65
473172,506,65
473172,335,65
473188,302,65
473203,320,65
473205,324,65
473222,346,65
473233,305,65
473244,347,65
473253,331,65
473264,322,65
473272,357,65
473285,315,65
473295,346,65
473305,351,65
473315,320,65
473323,368,65
473336,336,65
473347,351,65
473355,381,65
473367,343,65
473377,394,65
473388,387,65
473398,382,65
473405,428,65
473419,385,65
473422,400,65
473438,381,65
473449,325,65
473460,351,65
473470,310,65
473472,309,65
473488,332,65
473501,291,65
473506,332,65
473521,315,65
473531,298,65
473538,337,65
473552,297,65
473563,321,65
473572,329,65
473582,296,65
473588,338,65
473603,309,65
473605,310,65
473621,338,65
473625,297,65
473640,335,65
473640,321,65
473656,300,65
473673,341,65
473686,301,65
473688,323,65
473705,329,65
473716,297,65
473722,340,65
473722,311,65
473746,312,65
473755,342,65
473767,300,65
473778,335,65
473788,327,65
473798,308,65
473805,349,65
473819,309,65
473829,327,65
473838,341,65
473850,302,65
473855,345,65
473870,319,65
473880,318,65
473888,348,65
473901,309,65
473911,343,65
473921,336,65
473922,315,65
473938,356,65
473952,317,65
473956,335,65
473972,347,65
473983,309,65
473993,355,65
474003,327,65
474014,327,65
474022,367,65
474034,322,65
474039,357,65
474055,342,65
474065,306,65
474075,352,65
474086,312,65
474089,325,65
474105,338,65
474117,298,65
474125,342,65
474137,318,65
474146,311,65
474155,344,65
474168,302,65
474179,336,65
474188,331,65
474199,317,65
474206,399,65
474206,487,65
474222,488,65
474239,345,65
474251,253,65
474255,342,65
474270,315,65
474272,311,65
474288,344,65
474302,302,65
474306,333,65
474322,332,65
474332,306,65
474339,351,65
474352,318,65
474355,334,65
474372,355,65
474383,315,65
474389,361,65
474404,345,65
474414,342,65
474422,386,65
474434,352,65
474445,391,65
474456,398,65
474465,377,65
474474,419,65
474474,372,65
474496,358,65
474506,359,65
474517,300,65
474522,329,65
474537,307,65
474548,291,65
474555,327,65
474567,286,65
474578,313,65
474589,317,65
474599,288,65
474606,331,65
474620,298,65
474629,307,65
474638,331,65
474650,290,65
474661,330,65
474671,315,65
474681,294,65
474689,335,65
474702,296,65
474712,322,65
474721,324,65
474723,294,65
474738,337,65
474753,305,65
474756,310,65
474772,335,65
474784,296,65
474789,334,65
474805,323,65
474805,304,65
474822,342,65
474836,303,65
474839,324,65
474855,333,65
474866,298,65
474872,341,65
474887,315,65
474897,316,65
474905,345,65
474918,301,65
474928,338,65
474938,329,65
474948,310,65
474955,352,65
474968,313,65
474979,333,65
474988,345,65
474998,312,65
475005,352,65
475019,325,65
475030,332,65
475040,360,65
475043,318,65
475061,346,65
475071,326,65
475073,304,65
475089,346,65
475102,308,65
475106,326,65
475122,339,65
475133,302,65
475139,345,65
475153,319,65
475163,316,65
475172,348,65
475184,303,65
475195,337,65
475205,342,65
475206,364,65
475223,527,64
475235,458,64
475246,311,64
475255,299,64
475266,305,64
475273,341,64
475273,317,64
475297,315,64
475305,345,64
475314,307,64
475322,341,64
475338,334,64
475348,312,64
475355,357,64
475369,319,64
475379,337,64
475388,359,64
475400,324,64
475406,372,64
475420,354,64
475427,356,64
475438,403,64
475451,368,64
475461,407,64
475471,410,64
475474,386,64
475489,414,64
475503,352,64
475513,341,64
475522,343,64
475533,292,64
475543,326,64
475554,304,64
475556,295,64
475572,328,64
475585,284,64
475589,314,64
475605,313,64
475606,286,64
475622,330,64
475635,297,64
475639,310,64
475655,333,64
475667,293,64
475673,337,64
475688,317,64
475697,308,64
475706,344,64
475718,300,64
475728,327,64
475738,330,64
475748,299,64
475755,342,64
475769,310,64
475779,319,64
475789,341,64
475800,300,64
475810,338,64
475821,320,64
475831,308,64
475839,345,64
475843,301,64
475862,330,64
475871,337,64
475883,305,64
475889,349,64
475902,315,64
475913,320,64
475922,346,64
475922,303,64
475940,344,64
475940,331,64
475965,318,64
475972,355,64
475984,322,64
475995,348,64
476005,351,64
476015,315,64
476021,349,64
476036,315,64
476038,322,64
476056,346,64
476065,304,64
476072,342,64
476088,328,64
476089,310,64
476106,349,64
476118,309,64
476123,330,64
476138,341,64
476149,305,64
476155,360,64
476170,367,64
476180,491,64
476189,497,64
476201,310,64
476211,290,64
476221,332,64
476222,305,64
476241,348,64
476252,309,64
476262,330,64
476272,340,64
476283,308,64
476289,354,64
476303,324,64
476306,326,64
476322,357,64
476335,319,64
476339,358,64
476355,352,64
476365,335,64
476374,384,64
476374,358,64
476389,383,64
476406,406,64
476416,377,64
476423,429,64
476437,403,64
476447,385,64
476455,389,64
476467,323,64
476477,339,64
476487,322,64
476498,294,64
476505,334,64
476519,295,64
476529,311,64
476539,325,64
476550,289,64
476555,331,64
476570,308,64
476580,301,64
476589,337,64
476600,293,64
476606,326,64
476622,321,64
476622,297,64
476639,337,64
476652,298,64
476655,314,64
476673,334,64
476673,296,64
476689,336,64
476704,314,64
476709,308,64
476722,342,64
476734,298,64
476739,328,64
476755,328,64
476765,301,64
476772,340,64
476786,306,64
476796,319,64
476805,342,64
476816,300,64
476822,341,64
476837,321,64
476848,311,64
476856,347,64
476856,306,64
476872,342,64
476888,345,64
476889,313,64
476906,352,64
476916,311,64
476929,313,64
476939,337,64
476939,299,64
476960,335,64
476970,317,64
476973,308,64
476988,345,64
477002,302,64
477006,328,64
477022,337,64
477032,307,64
477038,350,64
477052,329,64
477063,350,64
477072,483,64
477084,450,64
477094,374,64
477103,278,64
477114,315,64
477122,346,64
477135,310,64
477145,333,64
477155,341,64
477166,312,64
477173,353,64
477185,324,64
477196,327,64
477205,359,64
477217,317,64
477226,357,64
477237,349,64
477247,338,64
477256,379,64
477260,347,64
477279,381,64
477288,396,64
477298,374,64
477305,422,64
477319,398,64
477329,402,64
477339,416,64
477350,346,64
477361,360,64
477370,328,64
477381,296,64
477389,328,64
477402,291,64
477412,308,64
477422,316,64
477422,280,64
477439,323,64
477439,297,64
477455,297,64
477472,326,64
477484,284,64
477494,320,64
477504,313,64
477515,296,64
477522,336,64
477535,298,64
477539,317,64
477555,331,64
477566,296,64
477576,336,64
477586,309,64
477596,309,64
477606,338,64
477617,296,64
477627,328,64
477637,322,64
477648,300,64
477655,341,64
477668,303,64
477679,323,64
477689,338,64
477698,300,64
477705,344,64
477720,326,64
477723,323,64
477739,354,64
477751,309,64
477756,330,64
477772,329,64
477773,304,64
477789,345,64
477802,309,64
477806,321,64
477822,341,64
477833,303,64
477839,342,64
477853,323,64
477864,315,64
477873,347,64
477884,309,64
477894,348,64
477904,424,64
477915,482,64
477924,430,64
477935,256,64
477946,313,64
477956,338,64
477967,301,64
477972,343,64
477987,324,64
477996,317,64
478005,354,64
478017,313,64
478028,343,64
478038,346,64
478049,320,64
478055,366,64
478068,336,64
478072,349,64
478089,374,64
478099,338,64
478105,389,64
478113,382,64
478122,377,64
478140,423,64
478151,389,64
478155,419,64
478171,413,64
478182,359,64
478188,379,64
478202,326,64
478213,318,64
478222,336,64
478233,292,64
478239,329,64
478239,313,64
478265,298,64
478273,337,64
478285,295,64
478295,320,64
478305,327,64
478314,295,64
478322,338,64
478336,308,64
478347,317,64
478355,344,64
478367,304,64
478373,341,64
478387,327,64
478389,310,64
478408,350,64
478418,308,64
478428,332,64
478438,337,64
478449,304,64
478455,349,64
478469,318,64
478480,322,64
478489,347,64
478500,307,64
478506,344,64
478506,329,64
478531,315,64
478540,357,64
478551,318,64
478562,344,64
478571,354,64
478582,318,64
478588,358,64
478602,321,64
478606,319,64
478622,350,64
478634,310,64
478639,344,64
478655,336,64
478665,314,64
478672,354,64
478685,315,64
478689,333,64
478705,348,64
478716,311,64
478722,354,64
478736,340,64
478746,386,64
478756,531,64
478756,436,64
478772,321,64
478787,307,64
478798,316,64
478806,352,64
478813,316,64
478821,334,64
478839,349,64
478849,315,64
478856,357,64
478869,332,64
478880,328,64
478888,362,64
478900,318,64
478906,355,64
478906,351,64
478932,331,64
478938,381,64
478952,350,64
478957,373,64
478972,399,64
478982,374,64
478989,422,64
479002,402,64
479014,390,64
479022,402,64
479034,334,64
479044,344,64
479054,330,64
479065,296,64
479073,334,64
479085,296,64
479096,307,64
479106,326,64
479116,288,64
479123,326,64
479136,308,64
479138,298,64
479156,333,64
479167,288,64
479178,318,64
479188,318,64
479198,289,64
479208,336,64
479219,302,64
479228,313,64
479238,334,64
479249,294,64
479255,334,64
479270,315,64
479273,301,64
479290,339,64
479301,300,64
479306,328,64
479321,330,64
479332,300,64
479339,341,64
479339,308,64
479356,317,64
479372,340,64
479383,302,64
479389,338,64
479404,324,64
479413,311,64
479422,356,64
479434,317,64
479445,338,64
479455,338,64
479465,296,64
479472,341,64
479486,310,64
479495,317,64
479505,339,64
479516,298,64
479527,335,64
479537,324,64
479547,307,64
479556,348,64
479556,306,64
479578,327,64
479588,336,64
479599,317,64
479605,453,64
479618,508,64
479630,422,64
479639,269,64
479649,288,64
479660,333,64
479670,318,64
479681,304,64
479689,345,64
479701,305,64
479711,328,64
479722,340,64
479722,305,64
479738,350,64
479752,324,64
479763,328,64
479772,358,64
479783,318,64
479789,359,64
479803,356,64
479806,344,64
479823,393,64
479835,367,64
479839,398,64
479855,414,64
479864,381,64
479872,417,64
479886,364,64
479896,336,64
479905,347,64
479917,293,64
479925,323,64
479925,311,64
479948,288,64
479955,332,64
479968,289,64
479978,307,64
479988,321,64
479999,283,64
480006,328,64
480012,302,64
480030,299,64
480039,329,64
480039,289,64
480055,325,64
480071,317,64
480073,292,64
480089,338,64
480101,303,64
480106,318,64
480122,331,64
480132,293,64
480139,335,64
480139,311,64
480163,306,64
480173,335,64
480184,293,64
480189,324,64
480204,322,64
480212,297,64
480223,342,64
480235,305,64
480239,319,64
480255,338,64
480266,296,64
480276,342,64
480287,318,64
480296,309,64
480305,348,64
480317,312,64
480327,341,64
480338,342,64
480348,308,64
480356,341,64
480369,307,64
480378,318,64
480389,339,64
480399,297,64
480406,336,64
480420,318,64
480430,306,64
480439,344,64
480451,307,64
480456,334,64
480471,336,64
480475,308,64
480491,366,64
480502,418,64
480512,519,64
480522,459,64
480523,235,64
480539,333,64
480553,324,64
480555,308,64
480572,343,64
480575,302,64
480590,329,64
480604,333,64
480614,305,64
480623,351,64
480635,318,64
480646,327,64
480656,356,64
480666,315,64
480672,361,64
480687,350,64
480688,341,64
480706,386,64
480718,354,64
480724,389,64
480738,405,64
480739,381,64
480755,425,64
480769,388,64
480775,369,64
480789,370,64
480789,309,64
480807,336,64
480815,314,64
480823,294,64
480840,329,64
480850,290,64
480861,311,64
480871,321,64
480882,287,64
480889,331,64
480902,298,64
480907,304,64
480922,331,64
480933,289,64
480939,326,64
480939,314,64
480963,297,64
480973,336,64
480984,295,64
480989,319,64
481005,328,64
481014,294,64
481025,337,64
481036,310,64
481038,311,64
481055,339,64
481066,296,64
481073,334,64
481086,327,64
481090,303,64
481106,344,64
481115,302,64
481128,324,64
481138,335,64
481148,298,64
481156,343,64
481169,316,64
481173,314,64
481189,342,64
481199,303,64
481206,339,64
481220,331,64
481230,314,64
481239,359,64
481251,322,64
481256,336,64
481271,341,64
481277,300,64
481290,345,64
481302,317,64
481306,313,64
481323,345,64
481332,301,64
481339,332,64
481353,326,64
481363,304,64
481373,347,64
481385,308,64
481389,324,64
481405,345,64
481415,322,64
481426,475,64
481436,506,64
481446,390,64
481456,273,64
481467,303,64
481472,334,64
481472,332,64
481489,308,64
481506,350,64
481518,311,64
481522,327,64
481538,347,64
481549,308,64
481555,354,64
481570,332,64
481579,325,64
481588,363,64
481600,325,64
481610,360,64
481621,365,64
481627,347,64
481639,400,64
481652,373,64
481661,394,64
481672,419,64
481673,378,64
481690,408,64
481703,367,64
481706,332,64
481723,352,64
481723,297,64
481739,317,64
481754,316,64
481756,285,64
481773,329,64
481785,295,64
481795,305,64
481806,326,64
481816,286,64
481826,327,64
481826,310,64
481839,297,64
481856,339,64
481868,293,64
481873,322,64
481873,328,64
481890,297,64
481906,339,64
481919,306,64
481923,316,64
481938,339,64
481950,297,64
481956,339,64
481969,321,64
481973,308,64
481989,347,64
482000,304,64
482006,328,64
482021,334,64
482031,305,64
482040,346,64
482051,312,64
482062,319,64
482072,344,64
482082,301,64
482089,340,64
482089,326,64
482106,313,64
482123,353,64
482134,311,64
482139,337,64
482155,348,64
482165,320,64
482173,364,64
482185,333,64
482188,328,64
482206,345,64
482216,305,64
482223,343,64
482237,330,64
482247,311,64
482256,347,64
482267,310,64
482276,331,64
482287,340,64
482298,308,64
482307,348,64
482319,323,64
482329,327,64
482339,362,64
482350,393,64
482356,520,65
482370,423,65
482381,253,65
482388,334,65
482401,305,65
482408,325,65
482422,337,65
482423,306,65
482440,350,65
482440,323,65
482457,323,65
482472,356,65
482472,315,65
482489,353,65
482503,345,65
482514,326,65
482522,370,65
482522,338,65
482545,363,65
482555,381,65
482564,355,65
482573,406,65
482586,383,65
482589,390,65
482606,422,65
482616,372,65
482627,383,65
482627,354,65
482641,311,65
482658,336,65
482664,294,65
482672,307,65
482688,322,65
482689,282,65
482708,325,65
482719,300,65
482730,295,65
482740,326,65
482740,289,65
482756,320,65
482772,319,65
482781,293,65
482789,340,65
482801,303,65
482812,318,65
482821,336,65
482832,297,65
482839,335,65
482853,315,65
482863,310,65
482872,342,65
482884,298,65
482889,326,65
482904,327,65
482914,299,65
482923,341,65
482923,306,65
482939,322,65
482956,340,65
482965,302,65
482973,344,65
482986,326,65
482996,315,65
483006,355,65
483017,309,65
483027,338,65
483038,340,65
483047,319,65
483055,361,65
483068,320,65
483073,321,65
483089,342,65
483099,303,65
483108,336,65
483115,318,65
483123,309,65
483140,343,65
483151,302,65
483158,331,65
483171,337,65
483181,306,65
483188,350,65
483202,316,65
483208,336,65
483222,367,65
483233,420,66
483241,496,66
483252,371,66
483263,258,66
483272,348,66
483284,302,66
483290,334,66
483305,341,66
483309,315,66
483323,354,66
483335,321,66
483339,330,66
483355,358,66
483366,321,66
483373,361,66
483387,348,66
483389,335,66
483406,378,66
483417,340,66
483422,375,66
483438,385,66
483447,364,66
483456,418,66
483462,395,66
483479,405,66
483489,434,66
483500,377,66
483509,389,66
483520,353,66
483530,319,66
483539,345,66
483550,299,66
483561,318,66
483571,323,66
483582,290,66
483589,333,66
483602,303,66
483612,307,66
483622,334,66
483633,294,66
483639,329,66
483639,319,66
483657,304,66
483673,344,66
483684,302,66
483689,327,66
483704,338,66
483715,304,66
483722,346,66
483736,317,66
483742,318,66
483756,349,66
483766,305,66
483776,339,66
483787,328,66
483789,306,66
483805,349,66
483818,306,66
483823,326,66
483838,339,66
483849,305,66
483856,350,66
483861,323,66
483872,321,66
483889,355,66
483900,320,66
483910,350,66
483914,341,66
483922,313,66
483940,342,66
483952,308,66
483961,327,66
483971,339,66
483982,301,66
483989,341,66
484002,314,66
484013,314,66
484023,346,66
484033,305,66
484039,341,66
484039,336,66
484064,314,66
484073,365,66
484085,398,66
484090,501,67
484106,427,67
484115,258,67
484122,332,67
484135,319,67
484146,314,67
484156,348,67
484167,310,67
484174,344,67
484187,338,67
484190,315,67
484205,360,67
484218,323,67
484223,341,67
484238,355,67
484249,320,67
484256,365,67
484269,347,67
484279,348,67
484289,388,67
484300,353,67
484309,398,67
484309,404,67
484322,384,67
484339,425,67
484351,381,67
484362,369,67
484372,363,67
484383,304,67
484389,336,67
484403,309,67
484414,295,67
484424,328,67
484427,283,67
484440,313,67
484454,314,67
484464,284,67
484472,328,67
484485,292,67
484495,305,67
484505,327,67
484516,287,67
484523,330,67
484536,311,67
484547,298,67
484556,336,67
484566,295,67
484576,325,67
484588,325,67
484597,297,67
484605,341,67
484618,307,67
484629,315,67
484639,337,67
484649,296,67
484656,336,67
484670,319,67
484679,304,67
484689,342,67
484700,301,67
484710,328,67
484721,330,67
484731,302,67
484741,346,67
484741,317,67
484762,328,67
484772,353,67
484782,310,67
484789,348,67
484803,320,67
484813,305,67
484823,345,67
484834,302,67
484839,324,67
484855,328,67
484856,295,67
484873,341,67
484885,313,67
484889,317,67
484905,342,67
484916,302,67
484923,337,67
484937,338,67
484947,360,67
484956,508,68
484967,426,68
484973,325,68
484973,292,68
484990,296,68
485006,340,68
485019,311,68
485023,315,68
485039,344,68
485050,302,68
485055,340,68
485070,332,68
485080,312,68
485089,353,68
485100,316,68
485111,340,68
485121,353,68
485126,323,68
485139,371,68
485153,349,68
485163,356,68
485172,394,68
485173,362,68
485189,404,68
485189,401,68
485214,377,68
485222,398,68
485234,332,68
485240,335,68
485240,334,68
485265,289,68
485273,330,68
485285,300,68
485289,298,68
485306,328,68
485317,287,68
485323,321,68
485337,314,68
485339,295,68
485356,338,68
485369,299,68
485373,314,68
485388,328,68
485398,292,68
485406,336,68
485418,310,68
485429,306,68
485439,337,68
485450,298,68
485456,331,68
485471,325,68
485476,300,68
485490,345,68
485502,303,68
485511,320,68
485522,337,68
485523,301,68
485539,344,68
485552,321,68
485556,314,68
485572,348,68
485584,305,68
485589,335,68
485604,333,68
485614,306,68
485623,352,68
485635,316,68
485640,329,68
485655,356,68
485666,316,68
485673,359,68
485687,330,68
485696,310,68
485707,348,68
485712,307,68
485722,336,68
485738,332,68
485747,304,68
485755,347,68
485768,312,68
485778,322,68
485789,344,68
485800,304,68
485806,348,68
485820,327,68
485829,330,68
485840,396,68
485850,463,68
485855,472,68
485871,350,68
485874,265,68
485889,350,68
485902,312,68
485911,321,68
485922,347,68
485932,307,68
485939,347,68
485939,329,68
485955,316,68
485974,353,68
485978,313,68
485989,344,68
486004,350,68
486015,320,68
486022,368,68
486035,342,68
486045,357,68
486055,386,68
486065,355,68
486075,405,68
486075,398,68
486090,386,68
486105,424,68
486118,364,68
486123,365,68
486138,351,68
486148,305,68
486156,339,68
486168,305,68
486179,309,68
486189,331,68
486199,289,68
486206,327,68
486212,312,68
486224,297,68
486239,339,68
486251,296,68
486261,318,68
486272,328,68
486274,293,68
486290,337,68
486302,307,68
486312,312,68
486323,336,68
486326,292,68
486339,333,68
486353,323,68
486356,301,68
486373,342,68
486384,303,68
486389,322,68
486405,332,68
486414,301,68
486423,341,68
486435,311,68
486446,311,68
486456,339,68
486467,298,68
486473,332,68
486486,325,68
486490,301,68
486506,344,68
486517,304,68
486528,326,68
486538,336,68
486549,301,68
486555,344,68
486569,318,68
486579,317,68
486589,346,68
486600,304,68
486606,344,68
486620,341,68
486631,318,68
486639,358,68
486651,311,68
486662,323,68
486672,338,68
486673,299,68
486689,342,68
486702,315,68
486712,310,68
486723,348,68
486733,303,68
486739,337,68
486754,335,68
486764,310,68
486773,354,68
486785,320,68
486789,348,68
486805,467,67
486812,493,67
486822,445,67
486836,259,67
486840,313,67
486856,346,67
486867,302,67
486873,336,67
486887,333,67
486890,311,67
486906,355,67
486919,320,67
486924,332,67
486938,353,67
486948,314,67
486956,357,67
486963,337,67
486980,334,67
486989,374,67
487001,335,67
487006,374,67
487021,382,67
487031,366,67
487039,418,67
487051,387,67
487056,403,67
487072,414,67
487083,349,67
487089,366,67
487103,329,67
487113,306,67
487123,338,67
487134,291,67
487140,317,67
487140,319,67
487164,291,67
487174,331,67
487185,297,67
487195,306,67
487206,327,67
487216,288,67
487223,329,67
487237,312,67
487246,300,67
487256,338,67
487267,296,67
487275,320,67
487287,327,67
487298,299,67
487305,341,67
487319,304,67
487328,312,67
487338,338,67
487349,296,67
487356,336,67
487370,320,67
487380,306,67
487389,346,67
487400,304,67
487410,328,67
487421,333,67
487431,301,67
487439,345,67
487452,311,67
487462,317,67
487472,345,67
487482,305,67
487489,338,67
487503,326,67
487513,310,67
487523,350,67
487534,307,67
487540,328,67
487540,340,67
487565,304,67
487573,347,67
487573,325,67
487596,330,67
487606,358,67
487616,313,67
487623,341,67
487637,324,67
487640,308,67
487657,347,67
487668,308,67
487673,328,67
487688,335,67
487691,303,67
487707,344,67
487718,315,67
487724,317,67
487739,346,67
487749,303,67
487756,343,67
487770,347,67
487780,432,66
487790,545,66
487790,406,66
487807,259,66
487821,334,66
487823,298,66
487839,342,66
487852,313,66
487856,313,66
487872,346,66
487883,304,66
487889,341,66
487903,336,66
487914,315,66
487922,357,66
487934,320,66
487940,343,66
487954,360,66
487965,328,66
487974,377,66
487974,359,66
487996,367,66
488006,411,66
488016,374,66
488023,411,66
488037,409,66
488047,376,66
488056,393,66
488067,331,66
488078,327,66
488089,333,66
488098,285,66
488106,330,66
488119,306,66
488124,298,66
488139,332,66
488150,289,66
488157,319,66
488170,316,66
488181,291,66
488190,334,66
488202,296,66
488211,307,66
488222,328,66
488232,290,66
488239,334,66
488252,312,66
488262,307,66
488273,341,66
488283,298,66
488290,332,66
488303,328,66
488314,299,66
488324,344,66
488334,311,66
488339,320,66
488354,342,66
488365,302,66
488374,343,66
488385,323,66
488390,311,66
488406,347,66
488417,308,66
488426,335,66
488438,338,66
488440,308,66
488456,350,66
488463,314,66
488473,323,66
488489,343,66
488499,304,66
488506,343,66
488519,327,66
488529,314,66
488539,359,66
488550,323,66
488556,347,66
488571,354,66
488581,314,66
488590,347,66
488601,315,66
488612,322,66
488622,346,66
488632,301,66
488640,339,66
488653,325,66
488663,311,66
488673,351,66
488673,309,66
488689,335,66
488705,340,66
488714,311,66
488723,366,66
488734,433,65
488740,518,65
488756,448,65
488766,232,65
488773,336,65
488773,323,65
488791,304,65
488807,348,65
488816,308,65
488823,332,65
488838,341,65
488848,310,65
488857,356,65
488863,327,65
488879,331,65
488889,358,65
488890,318,65
488906,358,65
488919,354,65
488930,341,65
488939,388,65
488951,354,65
488957,386,65
488963,406,65
488981,378,65
488989,425,65
489002,389,65
489012,367,65
489023,368,65
489033,303,65
489040,327,65
489040,313,65
489064,289,65
489073,330,65
489084,289,65
489090,309,65
489090,321,65
489115,283,65
489123,326,65
489123,301,65
489146,300,65
489155,332,65
489165,288,65
489173,324,65
489173,317,65
489197,296,65
489207,338,65
489216,304,65
489222,319,65
489238,332,65
489241,296,65
489257,339,65
489268,315,65
489274,311,65
489289,345,65
489300,301,65
489308,333,65
489321,329,65
489323,305,65
489340,348,65
489340,310,65
489356,323,65
489366,342,65
489373,304,65
489389,343,65
489403,320,65
489412,314,65
489422,349,65
489433,306,65
489440,340,65
489453,336,65
489462,316,65
489472,363,65
489484,325,65
489489,339,65
489505,347,65
489515,298,65
489523,344,65
489535,319,65
489545,310,65
489556,346,65
489566,300,65
489573,327,65
489587,330,65
489590,304,65
489606,348,65
489617,314,65
489623,325,65
489639,350,65
489648,322,65
489656,467,65
489669,514,65
489674,400,65
489689,274,65
489701,306,65
489707,332,65
489720,332,65
489723,305,65
489740,348,65
489752,315,65
489757,324,65
489773,348,65
489774,310,65
489789,352,65
489802,336,65
489813,324,65
489823,367,65
489833,329,65
489839,360,65
489854,369,65
489864,343,65
489873,400,65
489878,377,65
489889,392,65
489905,422,65
489916,381,65
489923,410,65
489935,370,65
489940,330,65
489956,350,65
489962,298,65
489973,315,65
489987,320,65
489989,286,65
490006,326,65
490018,294,65
490026,302,65
490039,326,65
490049,288,65
490057,324,65
490070,311,65
490077,295,65
490090,336,65
490100,297,65
490106,317,65
490121,325,65
490131,290,65
490139,335,65
490152,308,65
490156,311,65
490172,339,65
490182,298,65
490190,336,65
490203,325,65
490213,305,65
490223,346,65
490233,307,65
490239,329,65
490254,337,65
490265,303,65
490273,347,65
490286,320,65
490295,316,65
490306,346,65
490315,302,65
490323,338,65
490336,332,65
490347,309,65
490357,352,65
490357,318,65
490373,340,65
490388,355,65
490391,317,65
490408,349,65
490418,316,65
490429,318,65
490439,347,65
490449,301,65
490456,336,65
490470,331,65
490473,307,65
490490,348,65
490490,312,65
490507,329,65
490521,344,65
490523,304,65
490540,355,65
490552,353,65
490561,463,65
490573,514,65
490583,350,65
490590,272,65
490603,338,65
490613,306,65
490624,348,65
490634,311,65
490644,326,65
490655,344,65
490665,307,65
490673,352,65
490686,327,65
490689,323,65
490706,360,65
490716,319,65
490723,351,65
490737,355,65
490747,334,65
490756,384,65
490767,355,65
490773,380,65
490788,409,65
490798,378,65
490806,424,65
490819,402,65
490827,379,65
490839,387,65
490850,321,65
490856,331,65
490870,322,65
490873,288,65
490890,330,65
490901,295,65
490906,303,65
490917,323,65
490923,283,65
490939,323,65
490953,306,65
490963,296,65
490973,334,65
490974,294,65
490989,321,65
491003,324,65
491007,292,65
491022,338,65
491035,304,65
491039,312,65
491055,332,65
491065,290,65
491073,331,65
491086,315,65
491096,300,65
491106,338,65
491116,298,65
491125,323,65
491137,330,65
491147,296,65
491156,340,65
491168,310,65
491178,317,65
491188,343,65
491198,300,65
491206,339,65
491219,325,65
491224,312,65
491240,352,65
491251,309,65
491257,337,65
491257,351,65
491273,319,65
491291,360,65
491302,324,65
491307,316,65
491322,345,65
491333,303,65
491339,341,65
491352,330,65
491363,310,65
491373,350,65
491384,310,65
491390,333,65
491404,343,65
491414,306,65
491424,350,65
491434,323,65
491440,336,65
491440,450,66
491466,494,66
491473,443,66
491486,258,66
491490,299,66
491506,347,66
491516,304,66
491523,328,66
491537,342,66
491548,308,66
491556,352,66
491568,326,66
491579,326,66
491589,358,66
491599,318,66
491607,356,66
491619,351,66
491630,331,66
491639,376,66
491650,347,66
491657,370,66
491662,391,66
491681,365,66
491689,417,66
491702,397,66
491712,392,66
491723,416,66
491732,352,66
491740,360,66
491740,335,66
491757,300,66
491773,336,66
491784,297,66
491790,308,66
491804,322,66
491807,281,66
491823,322,66
491835,299,66
491846,292,66
491855,328,66
491866,288,66
491873,318,66
491887,316,66
491897,293,66
491906,337,66
491917,303,66
491922,313,66
491938,330,66
491948,292,66
491956,334,66
491956,311,66
491973,303,66
491982,337,66
492000,296,66
492006,324,66
492020,322,66
492030,298,66
492040,342,66
492050,308,66
492057,318,66
492071,337,66
492081,295,66
492089,337,66
492102,319,66
492107,310,66
492122,345,66
492133,307,66
492139,339,66
492154,340,66
492164,310,66
492173,345,66
492176,302,66
492190,314,66
492190,336,66
492215,296,66
492223,334,66
492235,317,66
492246,309,66
492256,340,66
492266,300,66
492273,328,66
492287,333,66
492298,304,66
492307,347,66
492317,325,66
492325,406,66
492325,514,66
492341,384,66
492356,283,66
492370,314,66
492373,313,66
492389,351,66
492400,311,66
492407,334,66
492419,339,66
492431,312,66
492440,356,66
492451,325,66
492457,332,66
492471,355,66
492481,322,66
492490,362,66
492502,348,66
492513,338,66
492523,382,66
492533,348,66
492541,385,66
492541,397,66
492558,375,66
492573,424,66
492584,395,66
492590,388,66
492606,390,66
492614,325,66
492624,342,66
492624,318,66
492639,293,66
492656,328,66
492667,288,66
492673,310,66
492687,316,66
492690,286,66
492706,328,66
492718,298,66
492723,301,66
492739,331,66
492740,290,66
492759,325,66
492769,316,66
492779,297,66
492789,340,66
492800,300,66
492806,321,66
492821,328,66
492824,296,66
492840,339,66
492851,310,66
492862,306,66
492872,336,66
492883,294,66
492890,332,66
492903,322,66
