Timestamp,ECGValue,BPM
632415,348,70
632426,308,70
632436,323,70
632446,345,70
632453,304,70
632467,343,70
632471,325,70
632486,326,70
632498,360,70
632502,313,70
632518,339,70
632528,329,70
632537,306,70
632549,347,70
632553,310,70
632569,322,70
632572,338,70
632586,299,70
632586,340,70
632610,317,70
632620,312,70
632620,345,70
632637,303,70
632637,338,70
632662,349,70
632669,401,70
632682,527,70
632693,412,70
632702,272,70
632714,335,70
632720,307,70
632734,345,70
632744,323,70
632753,315,70
632764,350,70
632772,309,70
632784,341,70
632795,340,70
632803,318,70
632816,360,70
632822,323,70
632836,341,70
632847,362,70
632854,329,70
632867,376,70
632877,361,70
632886,362,70
632898,405,70
632903,369,70
632903,408,70
632929,407,70
632936,361,70
632936,377,70
632953,324,70
632969,322,70
632980,328,70
632988,286,70
632999,327,70
633011,306,70
633020,298,70
633031,335,70
633042,290,70
633052,323,70
633062,321,70
633069,295,70
633082,340,70
633093,303,70
633102,314,70
633114,334,70
633119,295,70
633134,336,70
633144,316,70
633152,306,70
633165,343,70
633176,297,70
633185,330,70
633196,328,70
633204,301,70
633210,344,70
633226,309,70
633237,320,70
633247,339,70
633252,301,70
633268,341,70
633276,323,70
633286,312,70
633298,349,70
633303,305,70
633318,334,70
633329,338,70
633336,315,70
633349,359,70
633353,325,70
633370,329,70
633380,337,70
633386,296,70
633401,342,70
633403,320,70
633419,309,70
633431,346,70
633436,305,70
633453,333,70
633463,337,70
633471,305,70
633484,347,70
633487,313,70
633502,321,70
633513,355,70
633519,350,70
633534,513,70
633545,467,70
633553,313,70
633565,304,70
633574,304,70
633585,328,70
633596,329,70
633603,302,70
633617,348,70
633622,314,70
633636,326,70
633642,349,70
633653,309,70
633665,353,70
633678,335,70
633686,326,70
633699,367,70
633709,327,70
633719,362,70
633729,373,70
633737,354,70
633737,409,70
633760,382,70
633770,400,70
633781,424,70
633786,370,70
633801,385,70
633803,341,70
633820,308,70
633829,334,70
633837,289,70
633853,315,70
633854,317,70
633869,286,70
633883,331,70
633894,296,70
633903,306,70
633903,330,70
633919,286,70
633935,331,70
633946,311,70
633952,298,70
633966,339,70
633976,296,70
633986,323,70
633986,326,70
634003,299,70
634012,343,70
634027,306,70
634037,318,70
634048,340,70
634058,298,70
634068,339,70
634079,323,70
634086,310,70
634099,347,70
634109,304,70
634119,333,70
634130,335,70
634136,306,70
634150,350,70
634160,315,70
634170,324,70
634170,344,70
634187,305,70
634201,347,70
634212,330,70
634219,314,70
634232,357,70
634236,318,70
634252,349,70
634263,346,70
634269,304,70
634283,347,70
634286,313,70
634303,321,70
634315,343,70
634325,300,70
634335,342,70
634346,323,70
634353,308,70
634366,350,70
634376,307,70
634387,334,70
634396,336,70
634403,315,70
634417,384,70
634422,461,70
634438,493,70
634448,398,70
634458,245,70
634469,349,70
634479,324,70
634486,312,70
634500,351,70
634510,309,70
634520,341,70
634530,342,70
634536,314,70
634550,360,70
634561,329,70
634569,338,70
634582,364,70
634587,326,70
634602,371,70
634612,355,70
634622,347,70
634633,396,70
634643,364,70
634653,400,70
634664,412,70
634671,383,70
634684,419,70
634695,365,70
634703,346,70
634715,346,70
634719,290,70
634735,327,70
634746,308,70
634753,294,70
634766,331,70
634777,287,70
634786,314,70
634797,319,70
634803,287,70
634803,333,70
634820,297,70
634836,305,70
634848,330,70
634857,288,70
634869,332,70
634879,316,70
634886,301,70
634900,338,70
634909,297,70
634919,324,70
634930,326,70
634937,295,70
634937,340,70
634953,304,70
634970,316,70
634983,337,70
634992,298,70
635002,337,70
635013,320,70
635019,305,70
635033,343,70
635044,302,70
635053,325,70
635064,331,70
635074,302,70
635085,350,70
635095,314,70
635104,321,70
635116,353,70
635126,312,70
635136,347,70
635145,333,70
635152,305,70
635167,341,70
635170,302,70
635186,327,70
635198,329,70
635203,300,70
635219,341,70
635228,311,70
635236,317,70
635249,342,70
635260,299,70
635269,340,70
635279,326,70
635286,311,70
635300,365,70
635310,410,69
635320,497,69
635332,397,69
635337,246,69
635351,346,69
635361,310,69
635370,319,69
635382,347,69
635393,308,69
635403,347,69
635414,333,69
635420,322,69
635434,360,69
635443,318,69
635453,345,69
635453,356,69
635469,329,69
635485,372,69
635495,345,69
635502,358,69
635516,395,69
635526,361,69
635536,410,69
635547,404,69
635553,394,69
635567,424,69
635570,361,69
635587,359,69
635597,344,69
635603,297,69
635603,335,69
635620,300,69
635636,303,69
635649,325,69
635652,283,69
635670,322,69
635677,308,69
635686,294,69
635701,333,69
635703,295,69
635720,320,69
635732,327,69
635736,297,69
635752,345,69
635753,313,69
635769,316,69
635783,341,69
635793,299,69
635802,338,69
635813,323,69
635820,306,69
635824,346,69
635841,303,69
635853,332,69
635865,337,69
635874,308,69
635886,350,69
635895,317,69
635903,321,69
635916,346,69
635926,306,69
635936,346,69
635947,330,69
635952,320,69
635966,361,69
635977,323,69
635986,345,69
635998,340,69
636003,304,69
636019,350,69
636020,315,69
636036,320,69
636050,342,69
636053,302,69
636069,341,69
636070,325,69
636086,312,69
636101,351,69
636104,307,69
636120,335,69
636132,346,69
636141,327,69
636150,470,70
636162,469,70
636170,367,70
636183,294,70
636193,307,70
636203,339,70
636214,329,70
636220,316,70
636234,350,70
636245,314,70
636252,342,70
636265,349,70
636275,319,70
636286,364,70
636296,333,70
636303,339,70
636303,366,70
636327,328,70
636337,372,70
636347,366,70
636353,360,70
636368,410,70
636379,379,70
636386,409,70
636399,416,70
636409,373,70
636419,395,70
636424,337,70
636436,324,70
636450,334,70
636454,286,70
636469,322,70
636481,309,70
636490,290,70
636501,330,70
636512,289,70
636519,310,70
636532,316,70
636536,285,70
636552,328,70
636563,299,70
636570,304,70
636583,332,70
636586,290,70
636603,329,70
636615,316,70
636620,300,70
636635,341,70
636645,297,70
636653,319,70
636653,328,70
636676,296,70
636686,342,70
636696,308,70
636703,312,70
636703,338,70
636720,297,70
636736,336,70
636748,323,70
636753,305,70
636763,345,70
636778,305,70
636786,326,70
636786,334,70
636804,302,70
636820,353,70
636820,323,70
636837,327,70
636837,345,70
636860,293,70
636870,334,70
636881,322,70
636887,306,70
636887,345,70
636912,304,70
636920,328,70
636932,337,70
636943,303,70
636953,346,70
636953,314,70
636971,322,70
636984,348,70
636995,319,70
637003,427,70
637014,503,70
637019,421,70
637034,306,70
637046,291,70
637053,330,70
637053,336,70
637071,305,70
637086,346,70
637086,321,70
637102,327,70
637116,354,70
637127,312,70
637136,352,70
637148,338,70
637154,324,70
637154,369,70
637179,330,70
637186,356,70
637199,371,70
637210,346,70
637220,400,70
637229,379,70
637236,390,70
637250,419,70
637261,374,70
637270,397,70
637273,359,70
637287,321,70
637303,348,70
637304,300,70
637320,319,70
637320,324,70
637337,287,70
637353,330,70
637363,301,70
637371,305,70
637371,329,70
637394,289,70
637403,327,70
637413,315,70
637419,298,70
637435,340,70
637436,300,70
637453,325,70
637463,335,70
637471,302,70
637486,346,70
637497,312,70
637504,317,70
637517,345,70
637527,303,70
637536,341,70
637548,326,70
637554,309,70
637569,348,70
637578,310,70
637586,329,70
637600,338,70
637604,306,70
637620,349,70
637630,319,70
637637,320,70
637651,349,70
637661,304,70
637670,342,70
637681,334,70
637692,322,70
637702,365,70
637713,324,70
637723,338,70
637723,337,70
637743,306,70
637753,349,70
637764,317,70
637771,320,70
637784,346,70
637795,305,70
637803,340,70
637815,330,70
637825,311,70
637836,351,70
637846,313,70
637853,334,70
637866,354,70
637877,385,70
637886,536,70
637897,446,70
637904,282,70
637904,327,70
637921,305,70
637936,338,70
637949,327,70
637959,309,70
637969,352,70
637979,311,70
637987,335,70
638000,346,70
638010,314,70
638019,360,70
638031,333,70
638037,336,70
638052,368,70
638062,328,70
638071,371,70
638082,369,70
638092,362,70
638103,409,70
638113,377,70
638120,405,70
638120,416,70
638144,365,70
638152,383,70
638165,332,70
638171,318,70
638185,336,70
638195,286,70
638204,321,70
638215,310,70
638225,290,70
638236,333,70
638247,293,70
638253,315,70
638267,327,70
638277,291,70
638287,336,70
638298,307,70
638303,310,70
638318,338,70
638330,295,70
638337,332,70
638349,319,70
638359,300,70
638370,343,70
638380,302,70
638386,322,70
638400,336,70
638411,300,70
638420,345,70
638431,315,70
638436,316,70
638451,345,70
638462,302,70
638471,337,70
638483,325,70
638486,308,70
638503,349,70
638513,309,70
638522,333,70
638530,341,70
638536,305,70
638553,352,70
638565,329,70
638575,330,70
638585,358,70
638587,309,70
638603,338,70
638616,331,70
638626,312,70
638636,351,70
638646,308,70
638652,329,70
638667,338,70
638673,303,70
638687,347,70
638687,319,70
638703,321,70
638719,351,70
638729,310,70
638736,361,70
638748,436,70
638760,503,70
638769,460,70
638776,242,70
638786,324,70
638801,342,70
638803,303,70
638820,348,70
638825,320,70
638842,322,70
638852,352,70
638862,311,70
638872,348,70
638882,340,70
638886,321,70
638903,365,70
638914,328,70
638920,352,70
638934,369,70
638944,339,70
638953,392,70
638964,375,70
638975,383,70
638985,419,70
638997,382,70
639003,418,70
639017,387,70
639027,343,70
639036,362,70
639036,301,70
639053,316,70
639068,321,70
639078,284,70
639086,327,70
639098,298,70
639104,298,70
639104,328,70
639120,285,70
639137,324,70
639137,311,70
639153,293,70
639170,336,70
639181,294,70
639187,318,70
639201,328,70
639204,294,70
639220,339,70
639232,311,70
639242,309,70
639252,340,70
639263,295,70
639273,328,70
639283,321,70
639294,298,70
639303,340,70
639314,301,70
639320,324,70
639325,334,70
639345,297,70
639353,342,70
639365,313,70
639376,315,70
639387,343,70
639395,303,70
639403,338,70
639416,338,70
639427,320,70
639436,363,70
639448,316,70
639453,326,70
639469,339,70
639478,302,70
639487,345,70
639499,316,70
639503,317,70
639519,346,70
639530,301,70
639537,339,70
639550,328,70
639560,309,70
639570,351,70
639581,312,70
639586,345,70
639602,417,70
639612,494,70
639621,474,70
639621,276,70
639636,295,70
639652,351,70
639663,301,70
639673,341,70
639683,332,70
639694,313,70
639703,357,70
639714,318,70
639720,338,70
639735,349,70
639746,315,70
639753,363,70
639766,335,70
639773,340,70
639786,374,70
639786,338,70
639803,382,70
639817,384,70
639826,372,70
639837,424,70
639837,389,70
639854,408,70
639863,402,70
639879,340,70
639886,363,70
639899,317,70
639909,308,70
639920,333,70
639930,287,70
639937,323,70
639950,311,70
639954,295,70
639969,333,70
639982,294,70
639986,313,70
640002,326,70
640012,290,70
640019,333,70
640032,303,70
640043,306,70
640053,335,70
640063,291,70
640073,327,70
640084,318,70
640094,300,70
640103,342,70
640114,301,70
640120,321,70
640120,333,70
640145,297,70
640153,344,70
640166,313,70
640176,314,70
640187,342,70
640197,299,70
640204,335,70
640204,322,70
640220,306,70
640236,346,70
640236,306,70
640253,326,70
640269,341,70
640279,311,70
640287,356,70
640299,326,70
640310,320,70
640319,339,70
640331,301,70
640337,336,70
640351,324,70
640361,304,70
640369,346,70
640381,306,70
640392,327,70
640402,337,70
640412,304,70
640421,346,70
640421,317,70
640443,322,70
640453,360,70
640464,403,69
640473,524,69
640484,419,69
640488,239,69
640503,341,69
640516,307,69
640524,326,69
640536,339,69
640546,304,69
640553,350,69
640567,320,69
640576,325,69
640586,356,69
640597,315,69
640608,353,69
640618,347,69
640628,329,69
640636,373,69
640636,338,69
640653,366,69
640669,386,69
640679,358,69
640687,412,69
640700,392,69
640710,398,69
640720,423,69
640730,359,69
640736,369,69
640751,335,69
640761,301,69
640771,334,69
640783,289,69
640787,306,69
640803,317,69
640813,280,69
640820,323,69
640826,296,69
640837,296,69
640854,326,69
640864,284,69
640873,322,69
640873,309,69
640886,290,69
640902,336,69
640916,296,69
640926,318,69
640936,328,69
640947,289,69
640953,334,69
640967,306,69
640975,304,69
640987,336,69
640998,296,69
641003,330,69
641018,320,69
641028,302,69
641036,343,69
641048,302,69
641053,325,69
641069,338,69
641080,302,69
641087,347,69
641100,319,69
641110,319,69
641119,351,69
641131,309,69
641136,351,69
641152,343,69
641154,322,69
641170,358,69
641182,308,69
641193,329,69
641203,339,69
641204,301,69
641220,344,69
641234,316,69
641237,316,69
641253,346,69
641264,301,69
641273,338,69
641273,332,69
641295,312,69
641303,353,69
641316,326,69
641326,405,69
641337,529,69
641346,428,69
641353,300,69
641367,298,69
641378,321,69
641387,348,69
641387,308,69
641408,344,69
641418,335,69
641429,316,69
641436,358,69
641449,318,69
641460,339,69
641469,350,69
641479,316,69
641487,364,69
641501,341,69
641511,347,69
641521,382,69
641521,349,69
641536,394,69
641552,394,69
641562,384,69
641571,432,69
641582,388,69
641593,392,69
641603,376,69
641613,318,69
641619,344,69
641634,306,69
641637,303,69
641653,330,69
641665,286,69
641674,322,69
641674,311,69
641696,292,69
641703,335,69
641715,295,69
641721,315,69
641736,326,69
641747,288,69
641754,334,69
641767,309,69
641774,310,69
641787,339,69
641790,298,69
641804,333,69
641813,324,69
641819,303,69
641837,345,69
641850,303,69
641853,322,69
641869,336,69
641880,301,69
641886,344,69
641901,316,69
641911,314,69
641920,346,69
641932,301,69
641937,337,69
641952,329,69
641953,308,69
641969,349,69
641983,309,69
641994,331,69
642003,341,69
642013,305,69
642020,349,69
642026,328,69
642045,330,69
642054,358,69
642066,311,69
642074,334,69
642086,325,69
642096,307,69
642104,347,69
642116,308,69
642127,330,69
642136,341,69
642147,300,69
642153,345,69
642153,318,69
642174,316,69
642186,346,69
642199,306,69
642203,356,69
642219,399,69
642221,492,69
642236,480,69
642250,277,69
642260,298,69
642270,342,69
642281,299,69
642286,346,69
642301,319,69
642311,322,69
642319,353,69
642332,309,69
642342,347,69
642352,340,69
642363,320,69
642371,361,69
642383,325,69
642387,348,69
642403,362,69
642415,333,69
642420,383,69
642420,366,69
642437,377,69
642454,414,69
642463,377,69
642475,413,69
642485,389,69
642488,344,69
642503,361,69
642517,304,69
642527,311,69
642536,318,69
642548,281,69
642553,325,69
642553,298,69
642575,299,69
642586,328,69
642589,285,69
642604,320,69
642612,314,69
642630,291,69
642638,332,69
642650,295,69
642653,313,69
642670,329,69
642680,293,69
642687,336,69
642702,309,69
642712,310,69
642719,340,69
642732,297,69
642736,335,69
642753,326,69
642764,306,69
642770,349,69
642775,308,69
642794,327,69
642804,338,69
642815,302,69
642820,345,69
642835,317,69
642845,314,69
642853,343,69
642853,300,69
642877,334,69
642886,325,69
642897,309,69
642904,352,69
642917,308,69
642928,332,69
642936,353,69
642948,316,69
642954,361,69
642969,330,69
642978,315,69
642987,350,69
642999,306,69
643009,341,69
643020,331,69
643030,309,69
643037,349,69
643051,307,69
643061,329,69
643070,341,69
643081,306,69
643092,351,69
643101,322,69
643112,335,69
643120,403,69
643120,473,69
643143,454,69
643153,314,69
643164,281,69
643170,355,69
643184,313,69
643194,337,69
643203,351,69
643214,316,69
643225,360,69
643236,332,69
643246,333,69
643254,365,69
643254,325,69
643275,361,69
643287,358,69
643297,336,69
643303,384,69
643312,349,69
643327,379,69
643338,399,69
643339,376,69
643355,427,69
643368,403,69
643379,403,69
643386,419,69
643400,347,69
643410,357,69
643420,333,69
643427,301,69
643436,337,69
643443,299,69
643453,314,69
643470,328,69
643482,291,69
643492,331,69
643502,303,69
643512,303,69
643520,335,69
643525,294,69
643536,328,69
643553,320,69
643564,303,69
643570,342,69
643584,306,69
643595,323,69
643604,337,69
643615,302,69
643626,343,69
643636,314,69
643646,314,69
643653,347,69
643666,304,69
643677,336,69
643687,327,69
643698,308,69
643703,347,69
643718,310,69
643728,328,69
643737,339,69
643737,305,69
643759,349,69
643769,320,69
643779,316,69
643787,355,69
643787,316,69
643804,352,69
643820,338,69
643831,308,69
643837,351,69
643851,309,69
643862,327,69
643870,338,69
643882,302,69
643893,349,69
643903,319,69
643904,318,69
643921,350,69
643930,304,69
643937,342,69
643954,333,69
643963,322,69
643974,385,69
643984,445,69
643996,450,69
644004,357,69
644004,261,69
644021,349,69
644036,315,69
644047,320,69
644054,350,69
644067,307,69
644076,343,69
644087,335,69
644098,315,69
644108,361,69
644118,324,69
644128,344,69
644137,358,69
644149,326,69
644154,373,69
644170,353,69
644176,359,69
644187,399,69
644200,369,69
644204,410,69
644220,409,69
644232,388,69
644237,414,69
644237,352,69
644254,341,69
644270,333,69
644283,288,69
644286,328,69
644303,300,69
644313,294,69
644320,327,69
644333,283,69
644338,314,69
644353,308,69
644365,288,69
644375,329,69
644385,293,69
644387,311,69
644404,323,69
644414,289,69
644426,330,69
644437,305,69
644447,304,69
644453,332,69
644467,292,69
644477,324,69
644487,317,69
644487,298,69
644504,340,69
644519,302,69
644520,320,69
644536,331,69
644549,296,69
644560,338,69
644570,313,69
644581,312,69
644587,342,69
644601,300,69
644611,336,69
644620,327,69
644632,304,69
644642,352,69
644652,317,69
644662,334,69
644670,341,69
644683,293,69
644693,336,69
644703,311,69
644714,310,69
644720,338,69
644734,294,69
644744,329,69
644753,323,69
644753,300,69
644775,343,69
644786,306,69
644796,325,69
644803,340,69
644817,316,69
644825,384,69
644837,469,69
644837,425,69
644854,347,69
644864,262,69
644878,333,69
644887,323,69
644898,304,69
644903,347,69
644920,308,69
644921,326,69
644938,343,69
644938,308,69
644960,351,69
644971,325,69
644978,325,69
644986,360,69
645001,322,69
645012,360,69
645020,359,69
645033,343,69
645037,397,69
645052,367,69
645063,391,69
645070,413,69
645083,377,69
645094,406,69
645104,354,69
645114,328,69
645120,344,69
645135,289,69
645145,318,69
645154,311,69
645154,287,69
645171,327,69
645180,289,69
645196,306,69
645204,320,69
645213,283,69
645220,328,69
645236,305,69
645236,303,69
645253,334,69
645268,292,69
645278,326,69
645288,321,69
645288,299,69
645305,339,69
645319,302,69
645321,319,69
645337,334,69
645350,294,69
645353,338,69
645370,314,69
645381,310,69
645386,342,69
645401,299,69
645412,332,69
645420,328,69
645432,304,69
645443,345,69
645453,307,69
645463,325,69
645471,342,69
645484,305,69
645495,348,69
645503,326,69
645514,324,69
645520,358,69
645535,314,69
645537,344,69
645554,325,69
645566,305,69
645575,348,69
645587,309,69
645597,325,69
645604,339,69
645617,300,69
645621,344,69
645637,323,69
645648,317,69
645654,351,69
645669,309,69
645680,341,69
645689,351,69
645700,376,69
645704,522,68
645720,432,68
645730,305,68
645738,318,68
645751,304,68
645754,345,68
645770,324,68
645781,320,68
645792,353,68
645802,313,68
645804,347,68
645820,343,68
645833,317,68
645843,362,68
645853,327,68
645863,343,68
645870,364,68
645884,330,68
645894,378,68
645904,364,68
645904,365,68
645920,411,68
645935,375,68
645937,413,68
645954,411,68
645963,367,68
645970,386,68
645986,326,68
645987,325,68
646003,333,68
646017,289,68
646028,328,68
646037,305,68
646048,298,68
646054,333,68
646054,291,68
646079,323,68
646087,319,68
646100,294,68
646104,337,68
646120,301,68
646130,312,68
646137,333,68
646151,297,68
646153,338,68
646171,315,68
646182,309,68
646187,343,68
646202,303,68
646213,332,68
646221,332,68
646234,307,68
646244,349,68
646253,313,68
646263,324,68
646270,340,68
646284,301,68
646295,343,68
646304,318,68
646315,312,68
646323,348,68
646336,303,68
646346,335,68
646354,336,68
646367,309,68
646372,353,68
646387,315,68
646397,330,68
646404,353,68
646418,314,68
646428,357,68
646437,333,68
646449,310,68
646454,347,68
646469,305,68
646479,333,68
646487,332,68
646499,304,68
646510,347,68
646520,312,68
646521,324,68
646537,343,68
646552,302,68
646562,344,68
646571,323,68
646580,322,68
646587,380,68
646603,453,68
646613,501,68
646620,384,68
646634,248,68
646643,350,68
646653,311,68
646665,323,68
646671,343,68
646685,304,68
646694,346,68
646703,325,68
646707,318,68
646726,354,68
646736,315,68
646747,349,68
646754,349,68
646754,323,68
646770,370,68
646787,343,68
646797,361,68
646803,389,68
646813,359,68
646829,412,68
646837,398,68
646837,392,68
646854,417,68
646869,352,68
646880,354,68
646887,335,68
646901,296,68
646911,333,68
646921,294,68
646931,302,68
646937,325,68
646937,286,68
646954,328,68
646970,305,68
646983,296,68
646993,333,68
647004,290,68
647013,320,68
647020,321,68
647034,292,68
647037,337,68
647054,302,68
647065,315,68
647070,336,68
647087,292,68
647095,335,68
647105,320,68
647105,308,68
647120,345,68
647136,304,68
647146,332,68
647154,334,68
647167,306,68
647170,348,68
647187,312,68
647198,324,68
647208,346,68
647219,306,68
647228,347,68
647236,328,68
647249,317,68
647254,354,68
647270,311,68
647280,336,68
647287,338,68
647301,312,68
647311,358,68
647320,324,68
647332,332,68
647337,363,68
647337,325,68
647362,364,68
647370,346,68
647381,325,68
647393,354,68
647403,313,68
647414,340,68
647420,340,68
647434,313,68
647444,355,68
647453,318,68
647465,329,68
647475,350,68
647485,310,68
647495,351,68
647503,333,68
647516,322,68
647526,371,68
647537,415,68
647537,546,68
647553,469,68
647568,249,68
647571,343,68
647588,319,68
647588,326,68
647604,348,68
647619,309,68
647629,351,68
647637,332,68
647650,322,68
647661,361,68
647670,320,68
647680,350,68
647688,355,68
647688,326,68
647704,375,68
647720,343,68
647720,356,68
647742,389,68
647752,358,68
647763,410,68
647770,402,68
647783,394,68
647787,430,68
647803,371,68
647803,370,68
647821,349,68
647835,301,68
647845,335,68
647853,297,68
647865,302,68
647870,325,68
647886,283,68
647896,326,68
647904,308,68
647912,294,68
647927,333,68
647937,290,68
647948,320,68
647954,324,68
647954,293,68
647978,337,68
647987,302,68
647987,310,68
648004,335,68
648013,292,68
648021,333,68
648037,319,68
648051,304,68
648054,340,68
648070,298,68
648081,327,68
648087,332,68
648102,297,68
648111,342,68
648120,306,68
648132,312,68
648143,338,68
648152,295,68
648154,336,68
648170,320,68
648184,307,68
648194,344,68
648204,300,68
648214,328,68
648221,330,68
648235,300,68
648245,346,68
648254,311,68
648266,325,68
648275,353,68
648286,311,68
648297,351,68
648304,324,68
648317,302,68
648326,344,68
648337,301,68
648348,326,68
648355,328,68
648363,298,68
648379,341,68
648388,307,68
648399,315,68
648410,340,68
648419,299,68
648430,339,68
648438,326,68
648438,328,68
648461,467,67
648470,507,67
648481,437,67
648488,264,67
648488,296,67
648512,345,67
648520,309,67
648533,317,67
648543,344,67
648554,302,67
648554,344,67
648572,328,67
648584,316,67
648594,356,67
648604,316,67
648615,344,67
648625,350,67
648635,322,67
648645,373,67
648653,349,67
648666,360,67
648677,399,67
648687,366,67
648688,413,67
648704,405,67
648717,384,67
648720,402,67
648737,331,67
648737,332,67
648754,325,67
648769,284,67
648779,326,67
648787,290,67
648800,294,67
648803,322,67
648820,279,67
648830,315,67
648837,304,67
648850,288,67
648861,327,67
648870,286,67
648881,310,67
648891,318,67
648902,288,67
648913,332,67
648920,302,67
648933,307,67
648943,332,67
648954,290,67
648964,328,67
648970,313,67
648984,299,67
648988,339,67
649005,300,67
649015,323,67
649026,329,67
649036,296,67
649038,340,67
649054,310,67
649067,314,67
649071,339,67
649087,298,67
649097,334,67
649105,323,67
649118,307,67
649128,345,67
649138,304,67
649149,331,67
649159,339,67
649169,307,67
649179,357,67
649188,325,67
649200,329,67
649210,354,67
649220,299,67
649231,331,67
649238,320,67
649238,304,67
649262,342,67
649272,298,67
649272,320,67
649287,329,67
649303,296,67
649312,337,67
649322,310,67
649322,316,67
649344,345,67
649353,310,67
649363,361,67
649370,450,67
649385,476,67
649395,412,67
649403,246,67
649416,332,67
649426,335,67
649436,305,67
649446,348,67
649454,323,67
649467,326,67
649475,357,67
649486,314,67
649498,352,67
649504,343,67
649519,325,67
649529,369,67
649537,329,67
649548,353,67
649559,369,67
649570,342,67
649574,395,67
649587,376,67
649601,390,67
649604,424,67
649620,385,67
649621,414,67
649638,380,67
649652,335,67
649654,352,67
649670,300,67
649682,311,67
649692,321,67
649703,283,67
649704,321,67
649720,293,67
649734,295,67
649737,324,67
649755,281,67
649765,319,67
649772,307,67
649785,289,67
649787,332,67
649804,292,67
649816,314,67
649824,324,67
649836,290,67
649846,335,67
649853,307,67
649867,308,67
649874,334,67
649887,294,67
649898,330,67
649904,318,67
649919,300,67
649929,343,67
649937,300,67
649949,319,67
649960,332,67
649970,296,67
649980,340,67
649987,311,67
650000,312,67
650004,344,67
650021,305,67
650031,340,67
650037,333,67
650053,320,67
650062,364,67
650071,324,67
650071,335,67
650087,336,67
650103,303,67
650113,348,67
650120,317,67
650134,317,67
650144,347,67
650154,301,67
650165,339,67
650171,330,67
650186,310,67
650196,352,67
650204,313,67
650204,332,67
650227,357,67
650237,366,67
650248,515,67
650254,420,67
650254,297,67
650278,324,67
650286,309,67
650298,342,67
650305,335,67
650305,310,67
650330,356,67
650338,318,67
650338,338,67
650360,355,67
650370,319,67
650381,365,67
650387,339,67
650401,343,67
650411,376,67
650420,337,67
650431,375,67
650442,376,67
650453,364,67
650463,414,67
650470,384,67
650483,414,67
650494,423,67
650504,370,67
650514,385,67
650521,332,67
650535,317,67
650545,336,67
650554,288,67
650565,321,67
650571,310,67
650586,291,67
650596,331,67
650603,292,67
650616,308,67
650627,323,67
650637,286,67
650647,328,67
650654,302,67
650654,303,67
650678,335,67
650687,296,67
650699,331,67
650704,323,67
650720,303,67
650729,343,67
650737,306,67
650750,326,67
650754,339,67
650771,301,67
650771,340,67
650788,316,67
650802,311,67
650811,344,67
650820,300,67
650832,334,67
650838,329,67
650838,303,67
650864,346,67
650870,307,67
650882,326,67
650890,343,67
650903,313,67
650903,354,67
650922,327,67
650934,312,67
650945,337,67
650953,299,67
650966,332,67
650976,324,67
650986,299,67
650987,342,67
651004,303,67
651017,320,67
651027,336,67
651037,298,67
651038,343,67
651054,321,67
651069,320,67
651079,365,67
651087,404,67
651099,505,67
651109,411,67
651120,254,67
651130,341,67
651138,307,67
651150,325,67
651161,341,67
651170,305,67
651181,351,67
651187,329,67
651187,325,67
651211,359,67
651222,317,67
651233,352,67
651238,350,67
651254,328,67
651255,376,67
651271,344,67
651271,366,67
651287,390,67
651304,361,67
651313,412,67
651320,400,67
651336,395,67
651346,425,67
651355,362,67
651355,365,67
651371,343,67
651387,304,67
651388,339,67
651404,298,67
651417,311,67
651427,328,67
651437,288,67
651449,328,67
651459,307,67
651468,299,67
651480,333,67
651487,292,67
651499,322,67
651510,321,67
651520,296,67
651530,338,67
651538,303,67
651551,316,67
651561,337,67
651571,298,67
651571,340,67
651588,318,67
651602,311,67
651612,344,67
651620,301,67
651633,329,67
651643,327,67
651654,301,67
651664,343,67
651673,310,67
651685,322,67
651694,342,67
651704,302,67
651715,342,67
651722,322,67
651735,314,67
651747,353,67
651754,311,67
651766,346,67
651771,349,67
651787,321,67
651797,363,67
651803,323,67
651818,326,67
651821,347,67
651838,307,67
651838,344,67
651854,325,67
651864,316,67
651871,352,67
651887,307,67
651901,336,67
651911,336,67
651920,310,67
651931,353,67
651937,318,67
651937,341,67
651962,428,67
651970,485,67
651983,463,67
651992,286,67
652002,295,67
652004,349,67
652020,303,67
652033,334,67
652038,336,67
652054,308,67
652064,354,67
652070,322,67
652084,335,67
652087,356,67
652105,318,67
652116,360,67
652120,342,67
652136,334,67
652146,372,67
652154,335,67
652167,370,67
652177,383,67
652187,365,67
652198,414,67
652204,386,67
652218,396,67
652228,402,67
652237,332,67
652249,352,67
652254,317,67
652261,296,67
652271,330,67
652287,286,67
652300,313,67
652311,315,67
652320,285,67
652331,331,67
652337,299,67
652337,306,67
652354,328,67
652371,288,67
652371,328,67
652393,312,67
652403,298,67
652414,339,67
652420,295,67
652434,323,67
652443,328,67
652454,296,67
652454,339,67
652470,308,67
652485,317,67
652488,338,67
652504,299,67
652516,337,67
652520,322,67
652536,309,67
652547,344,67
652554,302,67
652554,329,67
652571,333,67
652588,304,67
652598,346,67
652605,315,67
652619,319,67
652621,344,67
652637,303,67
652649,341,67
652660,325,67
652669,318,67
652680,361,67
652687,322,67
652701,345,67
652704,344,67
652721,305,67
652732,352,67
652737,317,67
652753,322,67
652762,347,67
652770,303,67
652783,342,67
652793,330,67
652804,316,67
652814,353,67
652823,313,67
652834,341,67
652844,347,67
652854,328,67
652866,432,67
652871,504,67
652885,456,67
652895,314,67
652904,280,67
652916,342,67
652921,324,67
652937,309,67
652939,349,67
652953,310,67
652963,336,67
652970,343,67
652987,311,67
652999,355,67
653004,326,67
653013,332,67
653029,362,67
653038,324,67
653050,368,67
653054,359,67
653070,354,67
653071,401,67
653088,371,67
653088,404,67
653105,416,67
653121,383,67
653132,416,67
653142,358,67
653152,336,67
653163,348,67
653171,294,67
653184,328,67
653188,316,67
653204,297,67
653214,339,67
653223,296,67
653234,315,67
653237,327,67
653253,295,67
653265,337,67
653276,304,67
653276,306,67
653288,333,67
653304,293,67
653317,329,67
653321,318,67
653337,300,67
653338,339,67
653354,299,67
653365,322,67
653378,330,67
653388,293,67
653388,339,67
653404,312,67
653419,314,67
653422,342,67
653437,302,67
653437,338,67
653454,326,67
653471,306,67
653471,348,67
653488,310,67
653502,328,67
653508,339,67
653521,303,67
653532,346,67
653538,316,67
653553,315,67
653563,348,67
653570,304,67
653584,342,67
653588,335,67
653604,310,67
653614,361,67
653620,326,67
653635,343,67
653638,354,67
653654,306,67
653665,345,67
653672,323,67
653672,320,67
653697,350,67
653705,306,67
653717,338,67
653727,330,67
653737,307,67
653737,350,67
653755,309,67
653768,329,67
653779,343,67
653788,311,67
653788,369,67
653804,439,66
653820,518,66
653831,461,66
653838,239,66
653851,337,66
653855,334,66
653871,310,66
653881,354,66
653888,315,66
653888,333,66
653904,348,66
653921,312,66
653933,356,66
653938,332,66
653938,330,66
653963,366,66
653971,324,66
653984,361,66
653994,361,66
654004,346,66
654015,398,66
654021,369,66
654026,394,66
654046,419,66
654054,384,66
654066,423,66
654076,381,66
654087,350,66
654096,360,66
654104,300,66
654104,325,66
654128,313,66
654138,289,66
654148,333,66
654153,295,66
654169,309,66
654179,325,66
654188,286,66
654199,329,66
654204,304,66
654220,298,66
654229,335,66
654237,291,66
654237,321,66
654254,319,66
654271,296,66
654282,337,66
654289,301,66
654302,315,66
654313,331,66
654321,294,66
654321,339,66
654343,312,66
654353,310,66
654364,345,66
654371,300,66
654384,333,66
654389,329,66
654404,302,66
654414,346,66
654421,310,66
654421,323,66
654446,342,66
654455,303,66
654467,345,66
654471,321,66
654487,314,66
654497,352,66
654504,310,66
654518,338,66
654529,339,66
654537,319,66
654548,363,66
654555,325,66
654555,332,66
654580,340,66
654589,300,66
654600,341,66
654609,318,66
654621,309,66
654631,342,66
654638,299,66
654638,332,66
654662,329,66
654670,300,66
654681,344,66
654689,309,66
654702,322,66
654713,350,66
654720,356,66
654733,526,66
654744,482,66
654754,306,66
654764,301,66
654774,307,66
654785,328,66
654789,331,66
654804,302,66
654816,347,66
654822,314,66
654836,326,66
654846,348,66
654855,307,66
654867,349,66
654876,334,66
654887,325,66
654898,367,66
654904,327,66
654919,361,66
654928,374,66
654937,352,66
654949,408,66
654954,383,66
654971,399,66
654979,423,66
654989,370,66
655000,385,66
655010,341,66
655020,310,66
655031,334,66
655038,284,66
655038,308,66
655055,312,66
655071,280,66
655082,327,66
655089,292,66
655103,301,66
655113,324,66
655121,282,66
655134,324,66
655144,306,66
655154,293,66
655164,334,66
655174,290,66
655186,316,66
655195,321,66
655204,292,66
655215,336,66
655226,300,66
655237,306,66
655238,333,66
655255,292,66
655267,328,66
655271,314,66
655287,300,66
655290,339,66
655304,297,66
655318,326,66
655329,331,66
655337,299,66
655350,342,66
655355,309,66
655370,314,66
655377,337,66
655390,294,66
655401,335,66
655404,323,66
655421,311,66
655425,351,66
655438,310,66
655438,339,66
655458,348,66
655471,314,66
655483,361,66
655490,317,66
655504,313,66
655514,342,66
655521,302,66
655534,339,66
655544,326,66
655554,308,66
655565,347,66
655573,305,66
655573,330,66
655590,339,66
655604,305,66
655616,350,66
655621,324,66
655637,338,66
655647,468,66
655654,491,66
655664,428,66
655678,263,66
655688,308,66
655699,349,66
655704,310,66
655712,330,66
655729,341,66
655738,308,66
655749,354,66
655760,328,66
655770,330,66
655781,358,66
655790,321,66
655800,359,66
655811,351,66
655820,334,66
655831,380,66
655837,349,66
655852,380,66
655855,400,66
655872,372,66
655883,424,66
655890,400,66
655904,397,66
655913,406,66
655921,334,66
655935,350,66
655938,328,66
655955,297,66
655965,333,66
655971,293,66
655986,311,66
655996,322,66
656004,286,66
656017,330,66
656026,303,66
656037,300,66
656048,335,66
656054,294,66
656068,327,66
656075,323,66
656088,297,66
656091,340,66
656106,306,66
656116,320,66
656122,334,66
656137,299,66
656151,340,66
656155,314,66
656171,310,66
656173,340,66
656190,300,66
656190,332,66
656205,328,66
656222,303,66
656222,343,66
656238,305,66
656252,323,66
656263,337,66
656271,300,66
656283,343,66
656291,321,66
656304,315,66
656314,350,66
656321,314,66
656326,348,66
656345,343,66
656354,309,66
656366,345,66
656371,310,66
656371,324,66
656391,340,66
656404,304,66
656417,343,66
656421,319,66
656437,314,66
656447,352,66
656455,309,66
656468,339,66
656478,337,66
656487,309,66
656499,366,66
656504,375,66
656520,494,66
656530,441,66
656537,269,66
656551,319,66
656561,322,66
656570,312,66
656581,351,66
656591,308,66
656601,340,66
656612,338,66
656621,317,66
656632,361,66
656638,327,66
656638,340,66
656663,362,66
656671,326,66
656671,367,66
656694,346,66
656704,345,66
656714,390,66
656721,356,66
656721,398,66
656746,404,66
656754,385,66
656766,428,66
656771,372,66
656787,357,66
656796,354,66
656805,298,66
656817,330,66
656826,305,66
656837,290,66
656849,323,66
656854,282,66
656854,311,66
656871,314,66
656887,286,66
656900,328,66
656909,295,66
656919,305,66
656930,329,66
656938,289,66
656950,333,66
656961,314,66
656971,303,66
656981,339,66
656992,297,66
657002,325,66
657012,330,66
657020,301,66
657033,340,66
657037,310,66
657054,316,66
657063,337,66
657071,298,66
657083,338,66
657092,321,66
657103,309,66
657115,347,66
657121,307,66
657121,340,66
657138,350,66
657155,318,66
657166,356,66
657172,313,66
657186,316,66
657192,340,66
657204,299,66
657217,337,66
657228,322,66
657237,308,66
657248,347,66
657255,303,66
657255,327,66
657271,331,66
657288,301,66
657300,348,66
657305,322,66
657320,338,66
657321,451,67
657338,453,67
657352,377,67
657362,267,67
657372,310,67
657372,343,67
657392,305,67
657402,333,67
657405,339,67
657422,312,67
657434,356,67
657444,326,67
657454,332,67
657463,362,67
657471,323,67
657484,362,67
657492,355,67
657504,342,67
657515,389,67
657521,356,67
657535,388,67
657538,409,67
657555,384,67
657564,436,67
657571,410,67
657587,400,67
657598,402,67
657604,331,67
657618,347,67
657629,323,67
657637,296,67
657649,333,67
657659,295,67
657670,311,67
657680,323,67
657687,288,67
657700,330,67
657705,304,67
657720,306,67
657731,334,67
657738,293,67
657751,331,67
657762,324,67
657772,302,67
657772,344,67
657792,305,67
657802,323,67
657805,336,67
657821,299,67
657833,341,67
657838,314,67
657854,312,67
657865,344,67
657871,300,67
657885,336,67
657895,328,67
657905,303,67
657912,344,67
657922,309,67
657922,326,67
657947,342,67
657954,308,67
657967,352,67
657977,325,67
657988,320,67
657998,345,67
658005,295,67
658005,328,67
658029,323,67
658038,300,67
658049,342,67
658055,304,67
658070,322,67
658081,335,67
658088,300,67
658101,341,67
658105,317,67
658121,316,67
658131,352,67
658137,319,67
658152,417,68
658163,506,68
658171,398,68
658182,303,68
658193,290,68
658204,319,68
658213,339,68
658223,302,68
658223,342,68
658238,324,68
658255,319,68
658265,353,68
658271,312,68
658285,345,68
658293,344,68
658305,318,68
658317,365,68
658321,333,68
658337,355,68
658347,379,68
658355,346,68
658368,398,68
658376,386,68
658387,384,68
658398,425,68
658405,381,68
658419,393,68
658429,363,68
658438,312,68
658450,344,68
658460,300,68
658470,307,68
658480,324,68
658488,283,68
658493,323,68
658504,304,68
658521,294,68
658521,332,68
658538,286,68
658553,317,68
658562,319,68
658571,291,68
658576,335,68
658592,304,68
658603,313,68
658614,338,68
658620,295,68
658634,340,68
658638,319,68
658655,305,68
658665,342,68
658671,300,68
658686,328,68
658697,331,68
658704,299,68
658716,342,68
658724,312,68
658724,320,68
658747,345,68
658755,306,68
658768,343,68
658778,329,68
658788,315,68
658799,353,68
658805,319,68
658819,345,68
658830,352,68
658838,318,68
658850,350,68
658860,318,68
658870,324,68
658872,348,68
658888,307,68
658893,342,68
658912,328,68
658921,310,68
658921,348,68
658938,307,68
658953,332,68
658963,340,68
658972,306,68
658972,360,68
658993,352,68
659003,463,68
659014,487,68
659022,351,68
659022,288,68
659045,325,68
659055,305,68
659066,346,68
659071,304,68
659071,329,68
659096,337,68
659104,306,68
659116,350,68
659120,319,68
659137,324,68
659148,353,68
659155,316,68
659168,356,68
659179,348,68
659188,334,68
659199,381,68
659204,350,68
659220,383,68
659229,402,68
659238,375,68
659250,420,68
659261,384,68
659271,360,68
659272,365,68
659289,307,68
659302,330,68
659312,318,68
659321,294,68
659332,334,68
659343,294,68
659353,314,68
659362,325,68
659371,290,68
659384,332,68
659394,308,68
659405,306,68
659412,335,68
659420,291,68
659436,327,68
659439,320,68
659454,299,68
659462,342,68
659470,303,68
659486,324,68
659497,337,68
659505,299,68
659518,343,68
659524,318,68
659538,314,68
659538,347,68
659555,304,68
659568,340,68
659579,333,68
659587,308,68
659599,351,68
659605,314,68
659620,330,68
659630,347,68
659637,308,68
659637,348,68
659655,325,68
659671,320,68
659682,350,68
659688,308,68
659702,340,68
659712,335,68
659721,311,68
659733,362,68
659743,325,68
659754,340,68
659764,354,68
659772,306,68
659784,345,68
659795,323,68
659805,316,68
659814,348,68
659822,306,68
659836,335,68
659839,335,68
659856,308,68
659866,352,68
659876,315,68
659887,329,68
659894,346,68
659905,311,68
659917,366,68
659927,434,67
659937,499,67
659949,466,67
659955,249,67
659955,331,67
659977,336,67
659988,305,67
660000,348,67
660010,314,67
660020,326,67
660022,349,67
660038,309,67
660052,352,67
660062,337,67
660071,323,67
660071,363,67
660088,325,67
660094,358,67
660105,363,67
660121,339,67
660133,391,67
660144,367,67
660154,385,67
660165,417,67
660172,380,67
660185,419,67
660195,381,67
660205,341,67
660215,358,67
660225,301,67
660235,319,67
660239,319,67
660255,285,67
660265,330,67
660272,297,67
660288,304,67
660297,326,67
660305,282,67
660314,323,67
660328,307,67
660338,296,67
660349,334,67
660355,292,67
660369,318,67
660380,324,67
660388,293,67
660401,336,67
660411,303,67
660420,311,67
660430,335,67
660438,294,67
660451,332,67
660462,317,67
660471,302,67
660483,344,67
660488,302,67
660495,328,67
660513,336,67
660521,301,67
660521,344,67
660538,313,67
660554,318,67
660565,345,67
660571,303,67
660586,340,67
660595,327,67
660605,310,67
660616,352,67
660622,312,67
660636,336,67
660647,343,67
660656,310,67
660666,350,67
660677,322,67
660688,326,67
660698,351,67
660705,313,67
660705,357,67
660721,344,67
660738,329,67
660749,362,67
660755,308,67
660762,331,67
660770,344,67
660788,307,67
660801,348,67
660806,319,67
660822,318,67
660831,346,67
660838,304,67
660852,345,67
660862,336,67
660871,314,67
660883,355,67
660888,325,67
660903,366,67
660912,496,67
660922,484,67
660934,406,67
660938,262,67
660955,320,67
660965,344,67
660974,302,67
660985,337,67
660995,332,67
661004,310,67
661016,350,67
661022,311,67
661036,333,67
661039,347,67
661055,314,67
661065,358,67
661078,336,67
661088,337,67
661096,372,67
661104,337,67
661118,380,67
661129,383,67
661139,371,67
661139,421,67
661155,385,67
661169,396,67
661180,392,67
661188,328,67
661201,349,67
661205,307,67
661221,298,67
661232,329,67
661238,282,67
661253,315,67
661255,311,67
661271,286,67
661282,330,67
661288,292,67
661303,307,67
661305,323,67
661322,285,67
661334,328,67
661338,303,67
661355,298,67
661365,335,67
661371,290,67
661371,321,67
661388,319,67
661405,292,67
661416,337,67
661422,301,67
661437,314,67
661448,333,67
661455,295,67
661468,335,67
661477,315,67
661487,308,67
661499,343,67
661504,303,67
661519,335,67
661530,333,67
661538,303,67
661549,348,67
661560,311,67
661570,324,67
661581,343,67
661589,301,67
661596,342,67
661605,320,67
661621,312,67
661633,349,67
661639,307,67
661652,336,67
661663,336,67
661672,313,67
661683,361,67
661688,324,67
661704,336,67
661714,350,67
661721,301,67
661721,341,67
661738,324,67
661755,310,67
661764,346,67
661771,303,67
661786,331,67
661796,334,67
661805,303,67
661813,348,67
661827,316,67
661837,324,67
661847,345,67
661855,313,67
661868,384,67
661879,484,66
661889,473,66
661896,379,66
661905,253,66
661919,339,66
661925,337,66
661938,306,66
661950,349,66
661955,319,66
661970,327,66
661981,353,66
661988,312,66
662002,355,66
662008,341,66
662021,327,66
662032,368,66
662043,330,66
662053,357,66
662063,369,66
662073,343,66
662084,397,66
662094,376,66
662104,392,66
662115,426,66
662121,387,66
662134,420,66
662145,383,66
662154,335,66
662165,358,66
662171,302,66
662171,320,66
662197,325,66
662204,289,66
662217,332,66
662221,301,66
662238,303,66
662248,332,66
662255,288,66
662255,323,66
662279,311,66
662288,295,66
662299,338,66
662305,296,66
662312,320,66
662330,330,66
662338,294,66
662351,339,66
662355,310,66
662371,309,66
662372,339,66
662388,297,66
662401,331,66
662412,321,66
662421,303,66
662433,346,66
662438,303,66
662454,321,66
662463,334,66
662471,300,66
662474,344,66
662494,315,66
662505,315,66
662514,344,66
662522,301,66
662535,336,66
662538,330,66
662555,307,66
662566,349,66
662576,307,66
662587,329,66
662596,342,66
662605,304,66
662605,355,66
662622,331,66
662638,326,66
662649,358,66
662656,304,66
662664,332,66
662671,326,66
662689,305,66
662700,347,66
662710,309,66
662720,323,66
662731,337,66
662738,299,66
