Timestamp,ECGValue,BPM
678755,336,73
678765,406,74
678776,483,74
678783,484,74
678796,315,74
678802,266,74
678816,355,74
678827,305,74
678837,330,74
678848,340,74
678858,307,74
678866,352,74
678879,325,74
678889,329,74
678900,358,74
678909,315,74
678916,354,74
678929,343,74
678940,329,74
678950,375,74
678961,341,74
678967,371,74
678967,391,74
678991,362,74
679000,416,74
679012,395,74
679022,393,74
679032,413,74
679043,343,74
679050,354,74
679063,328,74
679071,298,74
679082,334,74
679095,293,74
679099,310,74
679115,326,74
679118,290,74
679133,332,74
679133,306,74
679149,305,74
679166,338,74
679175,294,74
679182,329,74
679182,324,74
679199,300,74
679217,343,74
679225,304,74
679233,319,74
679248,336,74
679259,295,74
679266,338,74
679274,313,74
679289,309,74
679299,341,74
679299,298,74
679317,331,74
679330,329,74
679332,304,74
679349,346,74
679361,309,74
679367,325,74
679371,340,74
679383,304,74
679400,344,74
679400,322,74
679423,318,74
679433,358,74
679443,313,74
679450,345,74
679464,334,74
679474,298,74
679483,343,74
679495,306,74
679500,319,74
679500,341,74
679517,300,74
679534,343,74
679546,319,74
679550,312,74
679566,350,74
679577,305,74
679583,334,74
679583,335,74
679608,320,74
679616,431,74
679627,498,74
679638,434,74
679643,289,74
679658,283,74
679666,344,74
679679,321,74
679690,315,74
679700,351,74
679710,311,74
679716,340,74
679730,341,74
679741,315,74
679750,358,74
679750,324,74
679766,338,74
679781,360,74
679792,325,74
679800,371,74
679800,357,74
679823,354,74
679833,402,74
679844,367,74
679850,400,74
679864,408,74
679874,378,74
679883,405,74
679883,345,74
679900,332,74
679915,341,74
679925,291,74
679933,327,74
679933,309,74
679956,293,74
679967,332,74
679975,289,74
679983,317,74
679997,319,74
680008,286,74
680017,330,74
680028,298,74
680039,304,74
680049,329,74
680060,289,74
680066,327,74
680080,311,74
680090,295,74
680099,336,74
680109,295,74
680121,317,74
680130,323,74
680132,291,74
680149,336,74
680162,306,74
680173,311,74
680183,335,74
680192,292,74
680200,332,74
680213,317,74
680224,300,74
680233,341,74
680244,299,74
680250,325,74
680250,334,74
680267,307,74
680282,350,74
680282,323,74
680303,321,74
680316,334,74
680326,295,74
680333,334,74
680346,318,74
680350,304,74
680366,342,74
680377,299,74
680383,323,74
680383,332,74
680408,299,74
680417,345,74
680429,316,74
680433,321,74
680449,362,74
680459,369,74
680467,513,73
680479,428,73
680487,275,73
680500,328,73
680511,311,73
680520,333,73
680531,343,73
680533,309,73
680549,356,73
680562,327,73
680566,329,73
680583,358,73
680593,316,73
680600,354,73
680613,347,73
680624,328,73
680633,376,73
680633,341,73
680650,366,73
680658,383,73
680666,357,73
680683,410,73
680696,389,73
680706,393,73
680716,422,73
680727,364,73
680733,376,73
680747,343,73
680757,307,73
680766,341,73
680778,299,73
680783,315,73
680798,325,73
680800,287,73
680818,331,73
680826,301,73
680834,300,73
680849,333,73
680859,293,73
680866,328,73
680876,320,73
680884,301,73
680900,344,73
680900,303,73
680921,322,73
680931,333,73
680942,295,73
680950,338,73
680962,315,73
680973,309,73
680982,343,73
680992,299,73
680999,333,73
681014,330,73
681024,305,73
681033,349,73
681045,310,73
681050,326,73
681065,344,73
681069,303,73
681084,349,73
681084,333,73
681100,327,73
681117,358,73
681127,305,73
681133,331,73
681146,330,73
681150,301,73
681166,345,73
681178,307,73
681184,321,73
681199,338,73
681209,299,73
681218,343,73
681218,320,73
681240,313,73
681250,349,73
681250,310,73
681266,352,73
681280,423,74
681291,477,74
681300,413,74
681300,257,74
681318,315,74
681326,338,74
681333,304,74
681350,346,74
681363,325,74
681366,318,74
681383,354,74
681387,311,74
681399,344,74
681414,346,74
681425,318,74
681432,364,74
681445,330,74
681450,346,74
681450,372,74
681476,341,74
681484,390,74
681496,378,74
681507,376,74
681517,421,74
681523,384,74
681532,407,74
681547,390,74
681549,333,74
681566,358,74
681579,308,74
681582,309,74
681599,327,74
681609,284,74
681618,322,74
681630,307,74
681640,292,74
681650,330,74
681650,289,74
681666,316,74
681681,322,74
681691,292,74
681700,337,74
681712,303,74
681718,308,74
681732,332,74
681733,291,74
681750,330,74
681762,314,74
681766,302,74
681783,339,74
681783,298,74
681800,326,74
681800,330,74
681825,297,74
681833,341,74
681845,309,74
681855,316,74
681866,342,74
681876,300,74
681883,339,74
681896,325,74
681907,312,74
681916,349,74
681928,307,74
681933,338,74
681948,347,74
681958,315,74
681967,355,74
681979,316,74
681983,317,74
681999,346,74
682009,302,74
682019,337,74
682030,326,74
682040,307,74
682049,347,74
682061,307,74
682067,329,74
682067,337,74
682084,302,74
682101,350,74
682112,331,74
682122,348,74
682132,482,74
682133,458,74
682149,393,74
682164,278,74
682167,313,74
682184,351,74
682184,312,74
682199,336,74
682215,346,74
682225,312,74
682233,358,74
682238,331,74
682249,336,74
682266,365,74
682276,323,74
682283,360,74
682297,354,74
682308,335,74
682316,384,74
682327,348,74
682333,377,74
682349,399,74
682350,372,74
682366,421,74
682379,396,74
682383,388,74
682399,399,74
682410,332,74
682419,348,74
682430,331,74
682441,303,74
682449,341,74
682461,301,74
682466,320,74
682481,334,74
682492,293,74
682499,338,74
682513,314,74
682523,311,74
682532,342,74
682543,298,74
682550,333,74
682550,324,74
682567,300,74
682583,346,74
682583,309,74
682600,326,74
682615,338,74
682625,301,74
682633,342,74
682646,319,74
682650,314,74
682666,347,74
682677,304,74
682683,337,74
682683,331,74
682707,308,74
682717,350,74
682725,312,74
682732,325,74
682748,344,74
682759,305,74
682766,345,74
682779,325,74
682790,321,74
682800,353,74
682800,308,74
682819,347,74
682831,349,74
682842,319,74
682850,360,74
682861,312,74
682872,319,74
682882,345,74
682893,303,74
682900,345,74
682913,323,74
682924,314,74
682933,350,74
682944,309,74
682950,338,74
682964,335,74
682975,309,74
682983,351,74
682995,318,74
683005,347,74
683016,462,73
683026,495,73
683033,442,73
683046,258,73
683057,312,73
683067,351,73
683077,308,73
683084,337,73
683098,338,73
683108,309,73
683117,351,73
683119,320,73
683133,331,73
683149,351,73
683150,311,73
683167,356,73
683176,338,73
683190,330,73
683200,375,73
683211,338,73
683220,376,73
683232,390,73
683234,368,73
683251,417,73
683261,390,73
683266,397,73
683283,402,73
683293,331,73
683300,350,73
683313,318,73
683323,297,73
683332,332,73
683345,290,73
683349,315,73
683365,318,73
683375,285,73
683383,330,73
683395,295,73
683406,301,73
683415,326,73
683426,286,73
683433,325,73
683447,312,73
683456,298,73
683467,337,73
683477,295,73
683483,319,73
683497,325,73
683508,294,73
683516,337,73
683529,304,73
683539,309,73
683549,336,73
683560,294,73
683566,334,73
683580,319,73
683590,302,73
683599,342,73
683611,297,73
683620,322,73
683631,332,73
683642,297,73
683649,342,73
683662,312,73
683667,316,73
683683,341,73
683683,301,73
683700,339,73
683713,325,73
683720,315,73
683733,360,73
683744,320,73
683749,336,73
683765,334,73
683775,298,73
683782,343,73
683782,313,73
683801,314,73
683817,342,73
683826,299,73
683833,333,73
683847,325,73
683850,307,73
683866,349,73
683878,306,73
683883,327,73
683899,339,73
683908,322,73
683916,473,72
683925,511,72
683933,405,72
683949,275,72
683960,302,72
683966,337,72
683976,330,72
683991,310,72
684000,352,72
684011,311,72
684022,330,72
684032,342,72
684042,308,72
684049,354,72
684063,330,72
684073,328,72
684083,362,72
684093,322,72
684100,362,72
684100,363,72
684123,347,72
684133,400,72
684144,370,72
684155,395,72
684164,414,72
684175,376,72
684183,400,72
684195,345,72
684200,322,72
684216,341,72
684226,287,72
684233,317,72
684247,311,72
684250,285,72
684266,327,72
684276,289,72
684283,306,72
684283,321,72
684309,284,72
684317,327,72
684330,301,72
684333,297,72
684349,335,72
684361,290,72
684366,324,72
684380,320,72
684384,294,72
684400,337,72
684400,300,72
684421,313,72
684432,331,72
684434,293,72
684451,336,72
684463,310,72
684473,303,72
684483,340,72
684493,297,72
684499,329,72
684514,326,72
684524,297,72
684532,343,72
684546,306,72
684556,320,72
684566,337,72
684576,299,72
684584,341,72
684584,319,72
684602,309,72
684617,350,72
684628,311,72
684633,343,72
684647,341,72
684651,305,72
684667,341,72
684679,308,72
684684,318,72
684699,337,72
684699,297,72
684718,338,72
684730,319,72
684733,307,72
684750,345,72
684750,303,72
684766,331,72
684781,333,72
684783,305,72
684800,362,72
684800,390,72
684822,511,71
684833,459,71
684843,251,71
684851,320,71
684851,324,71
684873,310,71
684883,348,71
684883,306,71
684901,338,71
684901,343,71
684926,313,71
684934,358,71
684946,322,71
684956,335,71
684966,357,71
684977,322,71
684983,365,71
684997,352,71
685008,346,71
685017,387,71
685021,360,71
685033,398,71
685048,406,71
685051,378,71
685068,421,71
685078,371,71
685085,351,71
685100,356,71
685110,300,71
685117,329,71
685131,308,71
685133,292,71
685149,330,71
685162,287,71
685167,312,71
685181,318,71
685184,286,71
685199,331,71
685213,298,71
685221,305,71
685233,331,71
685243,292,71
685250,333,71
685264,319,71
685270,301,71
685284,343,71
685295,300,71
685301,324,71
685315,333,71
685325,298,71
685334,345,71
685334,315,71
685356,316,71
685366,341,71
685377,300,71
685383,340,71
685398,328,71
685407,310,71
685417,351,71
685427,309,71
685434,334,71
685434,342,71
685453,309,71
685467,352,71
685479,322,71
685490,332,71
685500,364,71
685510,318,71
685516,359,71
685531,339,71
685535,314,71
685550,357,71
685561,316,71
685571,338,71
685581,345,71
685592,310,71
685599,359,71
685612,327,71
685623,327,71
685633,356,71
685643,313,71
685650,351,71
685664,347,71
685675,339,71
685683,439,70
685692,500,70
685705,437,70
685716,312,70
685725,304,70
685734,362,70
685747,336,70
685750,338,70
685767,369,70
685777,326,70
685784,363,70
685797,354,70
685799,335,70
685816,377,70
685828,343,70
685838,364,70
685849,380,70
685859,346,70
685870,396,70
685879,374,70
685883,380,70
685900,418,70
685900,388,70
685921,432,70
685931,427,70
685933,401,70
685950,425,70
685962,358,70
685969,354,70
685969,350,70
685983,301,70
686001,342,70
686013,312,70
686022,310,70
686033,341,70
686044,297,70
686050,331,70
686065,323,70
686072,302,70
686084,345,70
686084,308,70
686099,328,70
686116,340,70
686126,302,70
686133,347,70
686146,322,70
686157,317,70
686167,347,70
686178,307,70
686183,337,70
686198,329,70
686208,307,70
686218,349,70
686228,309,70
686239,326,70
686249,340,70
686250,305,70
686267,344,70
686280,318,70
686284,313,70
686300,347,70
686311,311,70
686320,337,70
686331,336,70
686334,315,70
686350,359,70
686362,321,70
686373,335,70
686383,342,70
686384,300,70
686399,340,70
686414,320,70
686424,312,70
686434,344,70
686444,304,70
686450,332,70
686465,328,70
686473,299,70
686484,344,70
686496,311,70
686500,322,70
686516,346,70
686527,318,70
686533,445,69
686546,478,69
686557,365,69
686567,286,69
686578,297,69
686588,326,69
686597,327,69
686608,300,69
686617,344,69
686629,308,69
686640,322,69
686650,343,69
686660,303,69
686668,345,69
686680,330,69
686690,321,69
686700,359,69
686711,323,69
686717,356,69
686732,365,69
686741,347,69
686750,398,69
686762,373,69
686772,391,69
686783,413,69
686784,369,69
686800,386,69
686815,338,69
686824,310,69
686834,334,69
686835,283,69
686851,309,69
686865,307,69
686876,277,69
686884,320,69
686896,286,69
686906,297,69
686916,317,69
686926,276,69
686933,318,69
686947,301,69
686958,289,69
686968,328,69
686977,289,69
686983,314,69
686999,318,69
687009,289,69
687017,334,69
687029,300,69
687040,305,69
687050,329,69
687060,289,69
687067,327,69
687067,311,69
687091,298,69
687100,336,69
687112,296,69
687122,321,69
687132,325,69
687143,296,69
687150,338,69
687163,304,69
687174,314,69
687184,338,69
687194,298,69
687200,337,69
687214,323,69
687225,318,69
687234,354,69
687245,316,69
687250,335,69
687265,325,69
687276,294,69
687284,341,69
687296,308,69
687301,311,69
687317,337,69
687327,296,69
687335,335,69
687347,319,69
687358,301,69
687368,342,69
687379,302,69
687383,327,69
687399,345,69
687401,335,69
687416,484,69
687430,454,69
687440,360,69
687450,287,69
687451,294,69
687467,331,69
687482,321,69
687491,308,69
687500,344,69
687500,304,69
687517,328,69
687532,341,69
687534,307,69
687551,351,69
687564,322,69
687568,327,69
687584,358,69
687594,318,69
687601,359,69
687615,357,69
687625,348,69
687634,397,69
687645,364,69
687656,392,69
687666,401,69
687677,358,69
687683,380,69
687697,329,69
687707,312,69
687717,330,69
687726,281,69
687734,315,69
687748,305,69
687750,286,69
687767,322,69
687779,285,69
687789,306,69
687799,313,69
687810,280,69
687820,322,69
687830,293,69
687841,296,69
687851,323,69
687861,280,69
687871,319,69
687882,308,69
687884,288,69
687899,329,69
687913,289,69
687916,309,69
687933,321,69
687943,286,69
687950,331,69
687964,303,69
687974,306,69
687984,338,69
687984,294,69
688000,329,69
688015,321,69
688017,299,69
688034,340,69
688046,302,69
688056,319,69
688067,332,69
688075,296,69
688084,338,69
688084,308,69
688101,307,69
688117,341,69
688127,298,69
688138,329,69
688148,332,69
688159,313,69
688167,353,69
688173,314,69
688183,325,69
688200,329,69
688200,298,69
688216,340,69
688229,314,69
688241,311,69
688246,341,69
688261,297,69
688272,329,69
688279,325,69
688293,303,69
688296,347,69
688312,307,69
688322,325,69
688329,354,69
688344,380,69
688354,522,68
688362,439,68
688374,276,68
688385,320,68
688394,300,68
688405,333,68
688412,326,68
688425,302,68
688436,350,68
688446,314,68
688456,332,68
688463,348,68
688477,311,68
688487,354,68
688496,332,68
688496,330,68
688513,366,68
688528,326,68
688539,368,68
688545,370,68
688559,356,68
688569,408,68
688579,376,68
688589,401,68
688595,418,68
688611,365,68
688621,383,68
688629,337,68
688641,318,68
688645,341,68
688661,293,68
688672,322,68
688679,320,68
688693,295,68
688703,339,68
688713,300,68
688723,315,68
688729,331,68
688744,292,68
688754,335,68
688763,310,68
688765,303,68
688779,338,68
688795,296,68
688806,329,68
688812,325,68
688825,300,68
688836,343,68
688845,303,68
688857,316,68
688867,336,68
688878,297,68
688887,340,68
688896,318,68
688896,310,68
688919,347,68
688929,302,68
688939,333,68
688946,331,68
688959,307,68
688968,352,68
688978,315,68
688990,329,68
689000,349,68
689011,308,68
689021,348,68
689029,328,68
689042,318,68
689052,353,68
689062,309,68
689073,340,68
689079,340,68
689092,312,68
689102,354,68
689113,321,68
689123,334,68
689134,350,68
689144,320,68
689154,364,68
689162,344,68
689175,332,68
689185,360,68
689195,310,68
689196,340,68
689213,339,68
689226,308,68
689237,351,68
689246,316,68
689257,328,68
689262,345,68
689269,308,68
689288,348,68
689296,331,68
689309,318,68
689313,355,68
689329,328,68
689340,432,67
689347,533,67
689359,439,67
689369,299,67
689379,303,67
689391,329,67
689396,346,67
689411,304,67
689421,345,67
689430,331,67
689430,319,67
689445,358,67
689462,314,67
689473,345,67
689478,349,67
689493,318,67
689503,363,67
689512,332,67
689523,345,67
689534,374,67
689545,340,67
689555,391,67
689564,385,67
689564,380,67
689582,429,67
689596,388,67
689606,403,67
689612,381,67
689627,325,67
689630,352,67
689646,308,67
689646,308,67
689663,331,67
689677,289,67
689679,327,67
689695,312,67
689709,299,67
689719,337,67
689729,293,67
689740,316,67
689746,321,67
689760,288,67
689770,333,67
689779,304,67
689791,309,67
689801,335,67
689811,295,67
689822,334,67
689829,319,67
689842,302,67
689852,342,67
689863,302,67
689873,325,67
689879,331,67
689894,298,67
689896,340,67
689914,311,67
689924,315,67
689931,342,67
689945,300,67
689955,340,67
689965,326,67
689976,309,67
689980,350,67
689995,311,67
690007,335,67
690015,339,67
690027,306,67
690037,349,67
690046,318,67
690058,322,67
690068,350,67
690079,306,67
690088,344,67
690096,330,67
690109,314,67
690120,354,67
690129,314,67
690140,344,67
690145,354,67
690160,319,67
690171,361,67
690179,321,67
690192,319,67
690202,348,67
690212,305,67
690212,340,67
690230,327,67
690242,306,67
690253,348,67
690263,309,67
690274,332,67
690279,341,67
690294,308,67
690304,351,67
690313,325,67
690325,341,67
690335,466,66
690345,498,66
690346,440,66
690362,265,66
690376,307,66
690380,350,66
690396,309,66
690407,330,66
690413,343,66
690428,307,66
690438,353,66
690445,324,66
690458,329,66
690469,361,66
690478,319,66
690489,356,66
690496,352,66
690510,335,66
690515,381,66
690529,349,66
690540,378,66
690546,397,66
690561,373,66
690571,425,66
690579,403,66
690591,399,66
690602,415,66
690612,343,66
690622,355,66
690629,328,66
690643,298,66
690653,336,66
690663,296,66
690674,312,66
690684,326,66
690694,288,66
690705,329,66
690712,302,66
690725,301,66
690735,332,66
690745,290,66
690756,327,66
690763,322,66
690763,298,66
690787,338,66
690796,300,66
690808,317,66
690812,331,66
690827,292,66
690830,337,66
690846,311,66
690859,308,66
690869,339,66
690879,296,66
690889,331,66
690895,325,66
690910,300,66
690920,343,66
690929,307,66
690941,322,66
690947,338,66
690962,299,66
690971,342,66
690979,317,66
690991,312,66
691002,347,66
691013,304,66
691023,335,66
691030,331,66
691030,305,66
691046,348,66
691063,310,66
691074,323,66
691079,344,66
691079,308,66
691105,347,66
691113,332,66
691120,329,66
691136,357,66
691145,315,66
691157,339,66
691162,329,66
691177,306,66
691187,348,66
691196,309,66
691196,322,66
691213,340,66
691227,304,66
691229,344,66
691246,321,66
691259,318,66
691268,351,66
691280,310,66
691290,347,66
691296,356,66
691310,411,65
691321,537,65
691329,405,65
691341,268,65
691346,338,65
691362,304,65
691372,347,65
691379,327,65
691393,321,65
691396,355,65
691412,311,65
691423,346,65
691429,345,65
691444,317,65
691446,363,65
691463,330,65
691472,345,65
691480,368,65
691495,337,65
691505,381,65
691512,367,65
691521,371,65
691536,412,65
691546,376,65
691556,412,65
691562,408,65
691577,365,65
691587,381,65
691595,324,65
691608,319,65
691618,332,65
691629,288,65
691638,328,65
691646,307,65
691659,297,65
691669,334,65
691679,291,65
691691,318,65
691695,318,65
691710,291,65
691721,335,65
691730,300,65
691741,312,65
691751,335,65
691762,295,65
691772,337,65
691779,316,65
691793,304,65
691802,342,65
691813,300,65
691824,328,65
691833,330,65
691843,298,65
691855,345,65
691862,310,65
691862,319,65
691881,343,65
691896,303,65
691906,338,65
691913,323,65
691927,309,65
691930,345,65
691945,304,65
691945,332,65
691963,334,65
691977,304,65
691979,351,65
691996,314,65
692008,328,65
692019,347,65
692029,307,65
692039,354,65
692046,334,65
692046,325,65
692067,356,65
692079,302,65
692090,330,65
692095,337,65
692111,304,65
692121,346,65
692130,309,65
692130,319,65
692153,344,65
692162,300,65
692172,341,65
692179,326,65
692193,316,65
692203,349,65
692213,324,65
692225,378,65
692235,490,65
692245,427,65
692255,354,65
692262,277,65
692276,324,65
692286,342,65
692296,307,65
692307,349,65
692315,335,65
692327,321,65
692337,360,65
692346,317,65
692358,346,65
692363,352,65
692378,324,65
692380,370,65
692395,340,65
692409,350,65
692419,378,65
692429,345,65
692440,394,65
692446,388,65
692460,380,65
692470,427,65
692479,390,65
692479,403,65
692501,382,65
692512,325,65
692521,347,65
692530,300,65
692530,302,65
692547,326,65
692563,280,65
692573,322,65
692580,307,65
692593,287,65
692596,328,65
692612,288,65
692624,312,65
692630,323,65
692645,287,65
692646,333,65
692662,304,65
692676,307,65
692682,336,65
692696,296,65
692706,332,65
692712,317,65
692720,300,65
692730,342,65
692746,300,65
692758,322,65
692762,334,65
692778,299,65
692779,344,65
692796,312,65
692810,313,65
692820,342,65
692830,298,65
692830,338,65
692847,325,65
692847,308,65
692871,349,65
692879,310,65
692892,335,65
692896,339,65
692912,313,65
692922,362,65
692930,332,65
692943,332,65
692953,354,65
692963,302,65
692974,340,65
692979,328,65
692994,311,65
693004,350,65
693013,309,65
693013,331,65
693035,341,65
693045,304,65
693056,347,65
693063,319,65
693075,321,65
693080,358,65
693097,326,65
693107,435,65
693113,509,65
693121,388,65
693137,301,65
693147,303,65
693147,327,65
693163,343,65
693178,306,65
693179,352,65
693195,328,65
693209,325,65
693219,358,65
693230,316,65
693240,352,65
693251,344,65
693261,328,65
693272,374,65
693279,336,65
693291,361,65
693302,381,65
693312,351,65
693322,404,65
693330,389,65
693343,398,65
693353,433,65
693363,384,65
693373,400,65
693379,365,65
693394,321,65
693396,346,65
693412,298,65
693425,312,65
693430,325,65
693445,286,65
693456,330,65
693462,303,65
693476,299,65
693479,332,65
693496,287,65
693507,319,65
693517,318,65
693527,294,65
693538,341,65
693546,301,65
693546,317,65
693563,334,65
693579,300,65
693589,340,65
693596,313,65
693609,311,65
693613,341,65
693630,296,65
693641,328,65
693646,325,65
693646,300,65
693663,343,65
693679,307,65
693679,324,65
693695,339,65
693713,301,65
693723,343,65
693731,318,65
693731,314,65
693745,349,65
693764,304,65
693772,337,65
693780,342,65
693795,317,65
693805,362,65
693813,319,65
693825,319,65
693831,340,65
693846,302,65
693857,340,65
693862,318,65
693877,312,65
693887,343,65
693896,301,65
693907,333,65
693913,332,65
693928,305,65
693938,348,65
693945,313,65
693959,338,65
693969,398,65
693979,472,65
693980,472,65
693995,319,65
694007,275,65
694020,344,65
694030,299,65
694041,334,65
694046,333,65
694062,307,65
694072,354,65
694080,319,65
694092,333,65
694103,352,65
694113,316,65
694123,359,65
694131,341,65
694144,334,65
694146,373,65
694163,335,65
694175,371,65
694184,379,65
694195,363,65
694205,418,65
694212,387,65
694226,400,65
694231,410,65
694246,344,65
694257,362,65
694262,324,65
694277,305,65
694280,335,65
694295,293,65
694295,321,65
694318,321,65
694328,293,65
694339,337,65
694346,303,65
694359,312,65
694369,331,65
694380,288,65
694390,330,65
694395,315,65
694411,303,65
694420,341,65
694429,299,65
694442,327,65
694451,330,65
694462,299,65
694464,346,65
694479,310,65
694493,318,65
694497,340,65
694513,300,65
694523,340,65
694531,321,65
694544,307,65
694554,348,65
694562,307,65
694574,332,65
694585,336,65
694596,306,65
694606,348,65
694613,314,65
694626,321,65
694636,347,65
694646,304,65
694657,342,65
694663,327,65
694663,320,65
694688,360,65
694696,317,65
694696,338,65
694713,335,65
694728,300,65
694739,346,65
694746,310,65
694759,317,65
694770,344,65
694779,301,65
694790,340,65
694796,325,65
694811,311,65
694821,349,65
694829,306,65
694842,332,65
694852,346,65
694862,329,65
694864,468,65
694880,480,65
694893,400,65
694897,286,65
694913,296,65
694923,338,65
694932,326,65
694945,308,65
694955,350,65
694962,308,65
694975,333,65
694986,340,65
694996,311,65
695006,357,65
695015,328,65
695015,336,65
695037,366,65
695047,325,65
695047,370,65
695063,360,65
695078,351,65
695080,402,65
695095,371,65
695109,402,65
695113,416,65
695129,376,65
695140,401,65
695146,348,65
695160,330,65
695170,344,65
695179,294,65
695191,326,65
695196,312,65
695211,293,65
695221,335,65
695229,295,65
695242,317,65
695253,329,65
695263,292,65
695273,333,65
695279,303,65
695294,308,65
695296,336,65
695312,290,65
695324,329,65
695332,321,65
695344,301,65
695355,344,65
695363,302,65
695375,328,65
695386,335,65
695396,296,65
695407,343,65
695413,315,65
695413,312,65
695438,342,65
695446,299,65
695458,334,65
695468,327,65
695478,307,65
695480,348,65
695496,309,65
695510,331,65
695513,341,65
695529,304,65
695540,349,65
695547,320,65
695560,317,65
695571,348,65
695579,306,65
695591,341,65
695601,333,65
695612,321,65
695622,365,65
695629,323,65
695642,338,65
695646,341,65
695663,300,65
695673,347,65
695679,320,65
695694,318,65
695704,346,65
695712,305,65
695724,338,65
695735,330,65
695746,306,65
695747,350,65
695763,311,65
695773,329,65
695779,352,65
695797,327,65
695798,475,64
695813,492,64
695828,392,64
695838,286,64
695846,305,64
695857,337,64
695868,335,64
695879,312,64
695888,354,64
695895,313,64
695909,330,64
695914,347,64
695929,312,64
695940,357,64
695946,332,64
695961,331,64
695971,366,64
695979,328,64
695991,366,64
695996,364,64
696012,350,64
696023,405,64
696031,376,64
696033,400,64
696047,419,64
696063,376,64
696072,402,64
696083,349,64
696094,322,64
696104,343,64
696112,292,64
696125,321,64
696136,316,64
696146,288,64
696156,334,64
696166,298,64
696177,308,64
696179,327,64
696196,287,64
696206,331,64
696214,310,64
696227,302,64
696233,336,64
696246,293,64
696259,324,64
696268,321,64
696280,297,64
696289,338,64
696296,305,64
696310,321,64
696319,338,64
696330,298,64
696341,339,64
696346,318,64
696361,308,64
696372,344,64
696381,301,64
696392,335,64
696397,335,64
696413,307,64
696423,352,64
696433,313,64
696433,325,64
696446,346,64
696463,304,64
696472,346,64
696480,325,64
696494,317,64
696504,353,64
696512,309,64
696525,337,64
696533,339,64
696546,311,64
696546,353,64
696564,324,64
696577,337,64
696579,358,64
696597,316,64
696597,351,64
696613,321,64
696629,310,64
696634,348,64
696646,304,64
696659,333,64
696663,333,64
696679,302,64
696690,347,64
696696,312,64
696711,322,64
696720,343,64
696730,303,64
696741,344,64
696752,338,64
696761,401,64
696772,536,64
696779,421,64
696792,280,64
696802,321,64
696812,306,64
696823,347,64
696833,313,64
696843,321,64
696854,347,64
696863,308,64
696874,351,64
696880,334,64
696880,321,64
696906,363,64
696914,320,64
696926,351,64
696934,357,64
696946,331,64
696956,384,64
696962,356,64
696976,375,64
696987,407,64
696996,373,64
697007,418,64
697018,404,64
697029,375,64
697039,389,64
697046,325,64
697060,334,64
697065,330,64
697079,290,64
697090,333,64
697096,298,64
697096,306,64
697121,330,64
697129,287,64
697142,324,64
697146,310,64
697163,294,64
697169,334,64
697181,295,64
697193,319,64
697197,326,64
697214,293,64
697223,340,64
697230,306,64
697244,313,64
697247,340,64
697263,296,64
697275,334,64
697285,322,64
697295,306,64
697306,344,64
697312,304,64
697325,326,64
697336,335,64
697346,301,64
697357,346,64
697366,313,64
697377,316,64
697388,346,64
697397,300,64
697408,339,64
697416,326,64
697429,309,64
697434,347,64
697446,310,64
697460,333,64
697465,341,64
697480,315,64
697490,362,64
697497,329,64
697497,328,64
697522,344,64
697530,301,64
697542,338,64
697552,324,64
697562,306,64
697573,347,64
697579,305,64
697594,324,64
697604,339,64
697613,300,64
697615,345,64
697629,316,64
697644,319,64
697647,360,64
697664,331,64
697674,470,64
697686,470,64
697695,348,64
697706,301,64
697713,313,64
697726,331,64
697737,346,64
697747,311,64
697757,358,64
697763,329,64
697778,330,64
697788,357,64
697797,316,64
697808,353,64
697819,349,64
697830,328,64
697839,371,64
697846,336,64
697860,358,64
697865,379,64
697880,355,64
697891,408,64
697897,388,64
697911,392,64
697920,427,64
697929,380,64
697942,393,64
697947,358,64
697962,315,64
697968,344,64
697980,299,64
697993,314,64
698004,322,64
698012,287,64
698024,329,64
698034,301,64
698045,301,64
698055,331,64
698065,286,64
698075,322,64
698086,316,64
698096,294,64
698097,338,64
698117,297,64
698127,316,64
698137,334,64
698147,292,64
698157,337,64
698168,311,64
698178,306,64
698188,343,64
698196,298,64
698209,331,64
698219,328,64
698229,303,64
698240,343,64
698247,304,64
698261,322,64
698267,338,64
698280,300,64
698292,341,64
698296,319,64
698311,315,64
698322,349,64
698329,305,64
698342,337,64
698352,340,64
698363,317,64
698373,361,64
698383,321,64
698394,324,64
698404,336,64
698413,298,64
698424,344,64
698429,318,64
698445,311,64
698446,346,64
698463,305,64
698476,336,64
698486,332,64
698496,305,64
698506,351,64
698514,312,64
698519,335,64
698538,364,64
698546,418,65
698558,498,65
698568,368,65
698579,261,65
698588,348,65
698596,300,65
698609,338,65
698620,336,65
698630,309,65
698640,354,65
698646,320,65
698661,335,65
698671,357,65
698680,320,65
698691,362,65
698702,346,65
698712,339,65
698722,381,65
698729,339,65
698743,377,65
698753,384,65
698763,369,65
698774,421,65
698780,395,65
698795,409,65
698804,424,65
698813,361,65
698824,373,65
698830,332,65
698845,309,65
698856,337,65
698863,291,65
698876,318,65
698886,317,65
698896,289,65
698907,331,65
698913,294,65
698928,306,65
698938,326,65
698946,287,65
698958,329,65
698963,308,65
698979,300,65
698990,338,65
698996,296,65
698996,325,65
699014,326,65
699030,297,65
699037,339,65
699047,308,65
699060,315,65
699072,336,65
699080,297,65
699080,338,65
699102,319,65
699112,308,65
699123,346,65
699131,303,65
699143,330,65
699153,334,65
699163,301,65
699174,345,65
699180,312,65
699195,320,65
699205,342,65
699212,300,65
699226,349,65
699230,334,65
699246,321,65
699247,357,65
699263,304,65
699276,331,65
699281,337,65
699297,305,65
699308,348,65
699313,314,65
699328,321,65
699338,345,65
699347,303,65
699347,343,65
699363,326,65
699379,314,65
699390,351,65
699397,324,65
699410,379,65
699419,494,66
699430,431,66
699438,358,66
699447,276,66
699461,322,66
699471,344,66
699480,303,66
699480,344,66
699497,330,66
699513,315,66
699523,356,66
699530,313,66
699538,340,66
699554,347,66
699564,316,66
699574,363,66
699580,338,66
699580,345,66
699596,378,66
699613,342,66
699625,388,66
699636,384,66
699646,377,66
699657,424,66
699662,383,66
699678,398,66
699688,382,66
699697,324,66
699697,350,66
699718,308,66
699728,305,66
699738,329,66
699747,289,66
699747,327,66
699764,313,66
699780,295,66
699790,337,66
699796,294,66
699811,315,66
699821,325,66
699831,289,66
699841,336,66
699845,307,66
699861,309,66
699871,338,66
699877,295,66
699893,333,66
699903,323,66
699905,305,66
699922,346,66
699934,305,66
699939,328,66
699954,336,66
699965,302,66
699972,346,66
699985,321,66
699995,320,66
700005,348,66
700016,303,66
700022,340,66
700027,330,66
700046,311,66
700055,352,66
700065,312,66
700077,332,66
700087,342,66
700098,308,66
700105,351,66
700118,324,66
700128,324,66
700139,360,66
700150,316,66
700155,350,66
700170,335,66
700179,306,66
700189,350,66
700192,312,66
700211,330,66
700221,342,66
700232,305,66
700239,348,66
700252,322,66
700262,320,66
700272,352,66
700282,307,66
700288,343,66
700303,338,66
700314,328,66
700321,426,66
700334,493,66
700344,458,66
700355,312,66
700363,284,66
700372,349,66
700385,320,66
700388,315,66
700405,350,66
700416,309,66
700422,344,66
700422,340,66
700447,316,66
700456,360,66
700463,322,66
700471,343,66
700488,360,66
700488,327,66
700504,375,66
700519,356,66
700529,357,66
700538,400,66
700550,367,66
700555,408,66
700571,408,66
700581,384,66
700588,414,66
700601,350,66
700612,342,66
700621,342,66
700631,290,66
700640,327,66
700640,303,66
700663,298,66
700672,329,66
700683,287,66
700688,322,66
700704,317,66
700713,293,66
700721,334,66
700721,297,66
700740,311,66
700755,328,66
700765,290,66
700772,331,66
700785,311,66
700796,304,66
700804,341,66
700816,295,66
700822,327,66
700837,325,66
700847,300,66
700855,343,66
700868,304,66
700877,320,66
700887,336,66
700899,295,66
700905,338,66
700905,316,66
700929,310,66
700940,345,66
700940,301,66
700956,332,66
700965,331,66
700972,304,66
700988,348,66
701002,313,66
701005,325,66
701021,345,66
701032,307,66
701040,346,66
701053,325,66
701063,318,66
701071,353,66
701084,309,66
701088,344,66
701104,347,66
701106,316,66
701121,355,66
701135,310,66
701140,320,66
701155,344,66
701165,303,66
701173,343,66
701186,324,66
701197,310,66
701205,348,66
701216,306,66
701226,334,66
701238,334,66
701248,304,66
701255,350,66
701268,321,66
701275,347,66
701288,472,66
701299,489,66
701305,424,66
701305,258,66
701330,313,66
701340,347,66
701351,302,66
701355,330,66
701371,337,66
701371,306,66
701391,351,66
701401,319,66
701405,328,66
701421,354,66
701432,316,66
701443,356,66
701454,342,66
701463,331,66
701474,376,66
701484,340,66
701494,375,66
701505,390,66
701514,364,66
701523,416,66
701535,387,66
701545,393,66
701555,401,66
701565,329,66
701575,348,66
701587,318,66
701596,293,66
701604,328,66
701617,285,66
701627,311,66
701638,315,66
701640,282,66
701655,327,66
701666,295,66
701678,299,66
701688,327,66
701688,284,66
701705,326,66
701715,314,66
701730,296,66
701740,337,66
701751,299,66
701755,325,66
701771,331,66
701781,296,66
701788,341,66
701802,309,66
701812,314,66
701821,339,66
701833,296,66
701840,334,66
701853,319,66
701864,301,66
701872,342,66
701884,300,66
701895,325,66
701905,334,66
701915,298,66
701922,343,66
701922,313,66
701940,317,66
701955,344,66
701967,301,66
701971,338,66
701986,326,66
701997,306,66
702005,349,66
702018,309,66
702022,330,66
702037,343,66
702048,307,66
702055,354,66
702064,331,66
702079,329,66
702089,360,66
702100,308,66
702105,336,66
702121,328,66
702130,307,66
702140,344,66
702140,304,66
702155,325,66
702172,337,66
702174,300,66
702188,346,66
702202,316,66
702212,317,66
702222,347,66
702233,300,66
702240,350,66
702254,401,65
702263,497,65
702272,482,65
702285,275,65
702294,304,65
702304,345,65
702316,303,65
702322,347,65
702337,320,65
702346,320,65
702355,354,65
702367,311,65
702375,346,65
702387,339,65
702397,319,65
702405,365,65
702418,329,65
702428,352,65
702438,368,65
702448,337,65
702455,389,65
702469,372,65
702480,380,65
702488,422,65
702500,385,65
702505,418,65
702505,400,65
702531,349,65
702540,368,65
702552,310,65
702555,314,65
702571,325,65
702581,285,65
702588,328,65
702603,300,65
702613,295,65
702622,331,65
702622,289,65
702644,320,65
702653,314,65
702663,292,65
702672,337,65
702685,295,65
702696,315,65
702705,332,65
702715,292,65
702725,336,65
702736,311,65
702747,308,65
702755,341,65
702768,299,65
702777,331,65
702787,329,65
702798,302,65
702805,347,65
702818,308,65
702825,321,65
702838,336,65
702849,298,65
702855,341,65
702855,317,65
702880,310,65
702889,345,65
702900,305,65
702911,334,65
702920,330,65
702931,305,65
702940,347,65
702952,309,65
702962,323,65
702971,342,65
702982,314,65
702988,355,65
703003,334,65
703014,322,65
703023,345,65
703033,304,65
703040,337,65
703055,333,65
703055,301,65
703071,348,65
703085,312,65
703095,322,65
703105,341,65
703116,306,65
703123,346,65
703137,323,65
703140,314,65
703156,362,65
703166,348,65
703178,493,65
703188,465,65
703189,312,65
703206,312,65
703215,317,65
703221,322,65
703239,344,65
703250,306,65
703257,347,65
703270,329,65
703280,321,65
703288,358,65
703301,320,65
703312,349,65
703321,352,65
703331,328,65
703341,376,65
703352,345,65
703363,359,65
703372,390,65
703372,358,65
703388,410,65
703403,402,65
703414,396,65
703421,433,65
703434,380,65
703445,380,65
703455,355,65
703466,308,65
703475,340,65
703485,299,65
703489,307,65
703505,325,65
703516,285,65
703522,326,65
703522,307,65
703541,296,65
703555,333,65
703567,291,65
703572,318,65
703588,325,65
703599,293,65
703605,338,65
703619,305,65
703629,311,65
703638,336,65
703650,293,65
703656,333,65
703671,314,65
703677,304,65
703687,342,65
703687,299,65
703703,327,65
703722,326,65
703732,300,65
703742,346,65
703748,311,65
703763,319,65
703773,341,65
703782,299,65
703782,339,65
703798,323,65
703814,309,65
703824,349,65
703832,304,65
703841,338,65
703855,347,65
703865,313,65
703876,355,65
703882,315,65
703896,314,65
703906,343,65
703915,300,65
703920,340,65
703932,326,65
703948,309,65
703958,350,65
703965,306,65
703978,330,65
703989,339,65
703999,306,65
704010,349,65
704015,328,65
704030,346,65
704039,463,65
704048,455,65
704060,384,65
704071,276,65
704081,311,65
704092,346,65
704098,310,65
704112,335,65
704116,342,65
704132,310,65
704143,356,65
704149,327,65
704163,333,65
704168,363,65
704182,324,65
704193,363,65
704199,354,65
704214,339,65
704224,383,65
704233,350,65
704242,383,65
704250,401,65
704265,379,65
704276,433,65
704283,404,65
704296,399,65
704299,407,65
704317,333,65
704327,350,65
704333,323,65
704342,293,65
704349,332,65
704365,292,65
704378,313,65
704383,325,65
704399,285,65
704410,330,65
704416,304,65
704430,304,65
704433,334,65
704449,292,65
704461,329,65
704469,321,65
704482,301,65
704492,345,65
704500,305,65
704512,323,65
704520,333,65
704532,296,65
704543,339,65
704549,312,65
704564,313,65
704574,340,65
704583,296,65
704583,334,65
704605,326,65
704614,303,65
704624,348,65
704632,306,65
704642,325,65
704650,339,65
704666,303,65
704676,345,65
704682,321,65
704697,318,65
704699,348,65
704716,309,65
704728,348,65
704732,341,65
704748,317,65
704749,348,65
704765,308,65
704780,328,65
704783,338,65
704799,300,65
704810,344,65
704816,315,65
704830,313,65
704832,348,65
704849,301,65
704861,334,65
704871,331,65
704882,306,65
704892,356,65
704899,334,65
704899,438,65
704915,507,65
704933,383,65
704943,295,65
704949,316,65
704964,313,65
704975,351,65
704982,309,65
704995,341,65
705006,341,65
705015,317,65
705026,362,65
705032,324,65
705046,337,65
705057,356,65
705066,318,65
705066,365,65
705083,346,65
705098,345,65
705108,387,65
705116,350,65
705124,390,65
705132,394,65
705149,378,65
705159,429,65
705165,384,65
705173,378,65
705190,371,65
705199,314,65
705199,342,65
705215,316,65
705231,303,65
705233,337,65
705248,292,65
705248,322,65
705272,322,65
705282,295,65
705292,338,65
705299,299,65
705313,310,65
705323,329,65
705333,289,65
705344,330,65
705350,313,65
705364,303,65
705375,339,65
705382,296,65
705394,327,65
705398,327,65
705415,299,65
705426,344,65
705432,309,65
705446,320,65
705457,338,65
705466,298,65
705477,340,65
705488,321,65
705498,308,65
705499,343,65
705516,301,65
705529,329,65
705532,332,65
705549,300,65
705559,344,65
705568,310,65
705580,319,65
705590,340,65
705599,300,65
705610,339,65
705621,324,65
705631,308,65
705642,347,65
705649,312,65
705649,341,65
705665,347,65
705683,313,65
705693,348,65
705699,311,65
705699,320,65
705724,343,65
705732,300,65
705744,338,65
705750,321,65
705765,305,65
705774,345,65
705782,305,65
705795,331,65
705799,336,65
705816,304,65
705826,353,65
705835,334,65
705847,425,66
705850,519,66
705866,411,66
705878,291,66
705883,320,66
705898,313,66
705900,350,66
705915,308,66
705926,331,66
705933,339,66
705948,309,66
705960,354,66
705966,322,66
705981,330,66
705991,361,66
705999,317,66
706011,356,66
706021,346,66
706031,333,66
706041,381,66
706048,347,66
706062,380,66
706072,398,66
706082,374,66
706083,423,66
706099,392,66
706114,377,66
706124,380,66
706133,315,66
706144,337,66
706155,316,66
706165,296,66
706175,335,66
706182,294,66
706196,317,66
706199,324,66
706216,290,66
706227,335,66
706237,306,66
706247,306,66
706250,335,66
706265,292,66
706278,331,66
706283,319,66
706298,301,66
706309,344,66
706318,300,66
706330,324,66
706334,333,66
706349,298,66
706359,339,66
706365,312,66
706380,314,66
706390,345,66
706398,303,66
706411,336,66
706418,327,66
706432,304,66
706442,348,66
706449,306,66
706449,328,66
706466,339,66
706482,302,66
706493,347,66
706499,320,66
706514,317,66
706524,347,66
706533,304,66
706545,339,66
706555,332,66
706565,310,66
706570,352,66
706582,312,66
706582,332,66
706599,347,66
706615,310,66
706627,352,66
706632,333,66
706648,335,66
706650,364,66
706667,321,66
706676,343,66
706682,332,66
706699,313,66
706700,354,66
706716,315,66
706730,331,66
706740,343,66
706749,305,66
706761,347,66
706765,321,66
706781,318,66
706791,349,66
706798,305,66
706812,344,66
706822,350,66
706832,408,65
706843,545,65
706849,445,65
706863,275,65
706873,332,65
706883,302,65
706893,340,65
706899,318,65
706915,315,65
706918,350,65
706932,310,65
706945,344,65
706949,340,65
706965,318,65
706976,362,65
706982,326,65
706982,344,65
706999,364,65
707017,328,65
707027,378,65
707032,363,65
707048,361,65
707058,407,65
707066,374,65
707079,411,65
707083,411,65
707099,373,65
707110,391,65
707118,330,65
707130,325,65
707133,333,65
707149,287,65
707161,327,65
707168,302,65
707182,294,65
707192,329,65
707199,286,65
707199,317,65
707222,318,65
707232,291,65
707243,333,65
707250,295,65
707250,308,65
707274,329,65
707283,289,65
707283,331,65
707298,313,65
707315,303,65
707325,340,65
707332,294,65
707345,327,65
707348,331,65
707366,302,65
707376,344,65
707383,308,65
707383,316,65
707407,338,65
707415,299,65
707428,340,65
707438,322,65
707448,313,65
707458,349,65
707466,306,65
707479,333,65
707482,336,65
707499,308,65
707510,346,65
707516,313,65
707524,323,65
707533,349,65
707548,310,65
707561,350,65
707571,332,65
707582,323,65
707592,361,65
707599,319,65
707613,348,65
707623,352,65
707633,329,65
707633,373,65
707649,338,65
707649,343,65
707675,358,65
707683,312,65
707683,356,65
707699,339,65
707715,321,65
707725,360,65
707733,315,65
707746,341,65
707757,346,65
707765,312,65
707776,358,65
707783,327,65
707797,334,65
707807,364,65
707817,339,65
707828,484,64
707838,541,64
707849,428,64
707859,293,64
707866,321,64
707879,346,64
707883,350,64
707900,318,64
707900,362,64
707917,335,64
707930,340,64
707932,367,64
707949,325,64
707961,364,64
707972,352,64
707982,338,64
707992,379,64
707999,340,64
708013,369,64
708019,386,64
708033,359,64
708044,414,64
708050,394,64
708064,406,64
708074,440,64
708083,395,64
708083,416,64
708099,378,64
708115,336,64
708125,361,64
708132,310,64
708146,325,64
708156,333,64
708165,297,64
708177,340,64
708182,310,64
708198,310,64
708199,338,64
708216,298,64
708225,334,64
708239,323,64
708249,305,64
708259,345,64
708265,302,64
708279,323,64
708290,331,64
708299,299,64
708311,344,64
708317,313,64
708322,311,64
708333,341,64
708349,298,64
708362,335,64
708372,327,64
708382,304,64
708393,345,64
708398,306,64
708412,326,64
708420,338,64
708434,299,64
708444,341,64
708454,315,64
708465,316,64
708474,348,64
708483,303,64
708495,338,64
708498,328,64
708515,306,64
708526,349,64
708533,307,64
708546,325,64
708556,341,64
708566,306,64
708577,357,64
708583,334,64
708598,327,64
708609,361,64
708618,310,64
708629,335,64
708634,330,64
708649,304,64
708659,349,64
708666,309,64
708680,325,64
708688,339,64
708699,301,64
708705,344,64
708721,319,64
708731,313,64
708742,348,64
708751,304,64
708762,349,64
708770,407,64
708783,494,64
708793,472,64
708801,264,64
708813,307,64
708824,340,64
708832,298,64
708844,339,64
708849,316,64
708865,312,64
708875,343,64
708883,303,64
708896,341,64
708906,334,64
708916,313,64
708926,356,64
708937,321,64
708946,337,64
708948,357,64
708967,326,64
708971,377,64
708985,364,64
708997,366,64
709002,409,64
709019,373,64
709028,406,64
709036,391,64
709050,341,64
709052,358,64
709069,301,64
709078,306,64
709085,315,64
709101,272,64
709103,318,64
709119,294,64
709132,285,64
709136,320,64
709152,277,64
709162,306,64
709169,307,64
709183,278,64
709192,324,64
709201,289,64
709214,301,64
709223,318,64
709234,280,64
709244,323,64
709252,302,64
709265,295,64
709271,331,64
709286,289,64
709291,318,64
709302,319,64
709317,289,64
709326,335,64
709336,299,64
709347,310,64
709352,334,64
709361,289,64
709369,332,64
709386,311,64
709398,304,64
709408,341,64
709418,296,64
709429,325,64
709436,325,64
709449,298,64
709460,352,64
709469,318,64
709480,325,64
709491,346,64
709501,291,64
709503,333,64
709518,314,64
709532,305,64
709542,336,64
709552,296,64
709563,321,64
709569,323,64
709569,296,64
709585,343,64
709603,306,64
709603,317,64
709624,341,64
709635,310,64
709636,390,64
709653,483,64
709665,421,64
709669,334,64
709685,267,64
709696,333,64
709704,333,64
709717,308,64
709723,351,64
709736,318,64
709747,328,64
709758,352,64
709768,314,64
709779,351,64
709786,340,64
709786,327,64
709802,369,64
709819,333,64
709819,365,64
709835,378,64
709851,350,64
709860,406,64
709868,384,64
709881,399,64
709885,431,64
709901,392,64
709911,417,64
709918,374,64
709923,334,64
709941,351,64
709952,296,64
