Timestamp,ECGValue,BPM
417459,346,64
417467,312,64
417478,321,64
417491,344,64
417495,305,64
417511,345,64
417521,328,64
417528,314,64
417541,350,64
417545,309,64
417561,337,64
417572,339,64
417577,307,64
417592,353,64
417595,318,64
417613,324,64
417623,350,64
417628,306,64
417644,346,64
417654,329,64
417663,315,64
417663,356,64
417685,311,64
417694,338,64
417705,343,64
417711,309,64
417726,357,64
417728,331,64
417744,339,64
417744,362,64
417761,319,64
417777,353,64
417788,330,64
417795,315,64
417808,358,64
417819,311,64
417828,333,64
417828,342,64
417845,307,64
417859,352,64
417871,320,64
417878,324,64
417891,353,64
417895,308,64
417911,343,64
417921,343,64
417928,385,64
417941,540,64
417946,456,64
417962,307,64
417973,313,64
417978,309,64
417993,348,64
418003,319,64
418011,319,64
418019,352,64
418034,307,64
418044,344,64
418055,334,64
418062,311,64
418068,360,64
418081,318,64
418095,341,64
418106,359,64
418116,324,64
418127,375,64
418129,351,64
418145,355,64
418157,395,64
418166,357,64
418178,404,64
418188,401,64
418194,378,64
418194,418,64
418219,357,64
418228,355,64
418228,351,64
418245,301,64
418260,338,64
418271,311,64
418279,302,64
418290,337,64
418301,294,64
418311,329,64
418314,320,64
418330,295,64
418342,340,64
418345,297,64
418362,313,64
418371,330,64
418378,293,64
418394,339,64
418404,311,64
418412,308,64
418424,342,64
418428,298,64
418444,331,64
418445,324,64
418463,295,64
418476,342,64
418479,304,64
418495,318,64
418507,338,64
418516,294,64
418527,338,64
418528,314,64
418545,306,64
418558,345,64
418567,298,64
418579,331,64
418588,330,64
418594,301,64
418594,348,64
418620,311,64
418628,325,64
418640,346,64
418650,303,64
418660,348,64
418671,325,64
418678,313,64
418691,349,64
418701,303,64
418711,336,64
418722,336,64
418728,305,64
418742,353,64
418753,315,64
418761,326,64
418773,350,64
418778,306,64
418794,358,64
418804,342,64
418811,327,64
418825,364,64
418835,309,64
418845,332,64
418845,337,64
418862,302,64
418877,349,64
418886,312,64
418894,322,64
418907,349,64
418917,304,64
418927,344,64
418938,329,64
418945,316,64
418958,354,64
418968,318,64
418979,374,64
418979,499,65
418994,487,65
419010,406,65
419019,256,65
419028,325,65
419040,347,65
419050,301,65
419061,345,65
419072,326,65
419078,313,65
419092,355,65
419102,310,65
419111,339,65
419114,346,65
419127,309,65
419143,358,65
419153,330,65
419161,338,65
419173,370,65
419179,334,65
419194,379,65
419204,376,65
419212,365,65
419224,416,65
419228,379,65
419246,407,65
419255,413,65
419266,360,65
419276,382,65
419286,329,65
419294,319,65
419294,338,65
419312,292,65
419327,328,65
419328,313,65
419346,296,65
419346,339,65
419369,296,65
419378,319,65
419389,329,65
419394,294,65
419410,338,65
419418,307,65
419428,307,65
419441,337,65
419444,293,65
419462,333,65
419472,319,65
419478,299,65
419492,341,65
419502,300,65
419512,319,65
419523,332,65
419532,294,65
419544,341,65
419554,311,65
419562,310,65
419574,338,65
419579,293,65
419595,331,65
419605,322,65
419612,299,65
419626,344,65
419636,304,65
419646,322,65
419646,335,65
419662,297,65
419677,344,65
419687,316,65
419695,313,65
419707,348,65
419718,301,65
419728,336,65
419739,328,65
419745,303,65
419759,350,65
419767,308,65
419778,326,65
419789,345,65
419796,306,65
419810,352,65
419820,336,65
419829,331,65
419840,364,65
419851,314,65
419861,337,65
419872,332,65
419878,304,65
419892,353,65
419903,311,65
419912,324,65
419923,342,65
419933,301,65
419944,346,65
419954,323,65
419962,314,65
419975,352,65
419985,306,65
419995,349,65
420005,391,65
420011,487,64
420026,507,64
420029,308,64
420045,278,64
420045,343,64
420062,295,64
420078,341,64
420082,322,64
420097,311,64
420108,349,64
420118,307,64
420128,341,64
420139,342,64
420145,313,64
420159,362,64
420170,325,64
420179,339,64
420184,366,64
420195,328,64
420211,374,64
420221,362,64
420228,360,64
420240,408,64
420251,373,64
420261,411,64
420272,415,64
420282,378,64
420293,404,64
420303,344,64
420311,334,64
420323,346,64
420334,297,64
420344,334,64
420355,313,64
420361,299,64
420374,339,64
420385,293,64
420395,320,64
420395,325,64
420411,295,64
420426,338,64
420437,307,64
420445,312,64
420445,339,64
420467,294,64
420477,334,64
420478,319,64
420494,302,64
420507,341,64
420518,296,64
420528,321,64
420528,328,64
420550,292,64
420560,343,64
420570,311,64
420578,313,64
420590,342,64
420595,298,64
420611,339,64
420621,326,64
420629,308,64
420642,349,64
420646,303,64
420662,330,64
420673,337,64
420683,302,64
420693,346,64
420703,316,64
420712,318,64
420724,348,64
420734,304,64
420744,344,64
420754,334,64
420761,315,64
420775,364,64
420779,325,64
420794,345,64
420807,355,64
420812,307,64
420826,348,64
420829,321,64
420845,320,64
420858,351,64
420867,305,64
420878,338,64
420888,329,64
420895,306,64
420908,353,64
420919,310,64
420929,331,64
420929,344,64
420944,309,64
420960,368,64
420970,445,64
420979,498,64
420990,424,64
421001,233,64
421011,341,64
421022,329,64
421028,305,64
421043,349,64
421052,309,64
421061,329,64
421073,346,64
421079,306,64
421094,353,64
421104,330,64
421112,328,64
421124,365,64
421129,323,64
421145,359,64
421146,357,64
421162,337,64
421176,389,64
421186,359,64
421195,386,64
421195,409,64
421217,376,64
421227,424,64
421229,397,64
421246,373,64
421258,383,64
421262,318,64
421278,335,64
421289,324,64
421295,291,64
421309,335,64
421320,295,64
421329,305,64
421329,326,64
421345,285,64
421360,332,64
421371,308,64
421379,301,64
421379,337,64
421402,290,64
421411,321,64
421422,320,64
421428,293,64
421443,338,64
421453,301,64
421462,312,64
421468,333,64
421484,289,64
421494,334,64
421495,313,64
421511,302,64
421525,340,64
421529,297,64
421545,328,64
421555,328,64
421562,297,64
421571,346,64
421586,307,64
421595,318,64
421607,341,64
421617,298,64
421627,341,64
421637,321,64
421645,309,64
421658,349,64
421668,305,64
421679,334,64
421679,335,64
421694,303,64
421710,357,64
421720,321,64
421729,330,64
421739,348,64
421751,297,64
421761,339,64
421771,319,64
421778,304,64
421792,343,64
421802,297,64
421812,324,64
421822,331,64
421828,298,64
421843,345,64
421853,311,64
421861,317,64
421873,345,64
421884,312,64
421894,436,63
421895,505,63
421911,398,63
421926,278,63
421935,291,63
421944,322,63
421946,327,63
421962,295,63
421977,344,63
421987,312,63
421996,317,63
421996,348,63
422012,302,63
422027,342,63
422027,334,63
422046,317,63
422059,360,63
422061,321,63
422078,348,63
422081,364,63
422094,335,63
422110,390,63
422120,366,63
422129,377,63
422129,415,63
422151,372,63
422161,406,63
422171,380,63
422178,334,63
422192,358,63
422202,301,63
422212,312,63
422220,322,63
422228,281,63
422243,327,63
422247,295,63
422262,295,63
422274,327,63
422279,283,63
422294,317,63
422296,308,63
422312,290,63
422325,334,63
422329,291,63
422345,314,63
422356,328,63
422366,291,63
422377,332,63
422386,306,63
422394,304,63
422407,336,63
422418,291,63
422428,324,63
422438,316,63
422446,295,63
422459,340,63
422465,301,63
422479,319,63
422489,336,63
422495,297,63
422510,343,63
422520,316,63
422529,311,63
422541,344,63
422548,302,63
422561,335,63
422572,330,63
422578,312,63
422592,359,63
422603,320,63
422612,333,63
422623,340,63
422634,300,63
422643,344,63
422647,317,63
422661,309,63
422674,347,63
422678,299,63
422695,334,63
422704,330,63
422713,304,63
422726,348,63
422729,311,63
422745,331,63
422747,359,63
422762,374,63
422772,519,63
422787,421,63
422795,277,63
422807,325,63
422818,303,63
422829,332,63
422838,336,63
422847,309,63
422859,356,63
422866,321,63
422878,335,63
422890,357,63
422896,317,63
422896,358,63
422913,345,63
422930,333,63
422930,373,63
422952,334,63
422962,366,63
422972,375,63
422978,353,63
422993,405,63
423003,379,63
423012,393,63
423023,419,63
423034,380,63
423043,405,63
423055,364,63
423062,330,63
423075,348,63
423085,296,63
423095,318,63
423106,320,63
423113,289,63
423126,333,63
423136,298,63
423145,309,63
423157,328,63
423167,291,63
423177,331,63
423188,314,63
423194,297,63
423208,337,63
423218,297,63
423229,323,63
423239,330,63
423247,297,63
423260,341,63
423262,310,63
423279,314,63
423290,339,63
423301,294,63
423311,333,63
423322,320,63
423328,303,63
423342,346,63
423352,304,63
423362,327,63
423365,337,63
423379,300,63
423392,349,63
423395,316,63
423412,320,63
423421,355,63
423429,315,63
423444,354,63
423455,339,63
423463,312,63
423476,347,63
423479,305,63
423495,329,63
423506,336,63
423512,302,63
423521,346,63
423537,315,63
423545,319,63
423558,348,63
423568,307,63
423578,345,63
423588,332,63
423596,325,63
423596,379,63
423612,445,63
423628,472,63
423640,371,63
423648,254,63
423660,350,63
423670,314,63
423678,323,63
423691,351,63
423695,311,63
423712,348,63
423721,336,63
423729,323,63
423742,365,63
423752,323,63
423761,347,63
423773,359,63
423778,327,63
423794,376,63
423803,354,63
423812,358,63
423812,399,63
423829,362,63
423844,407,63
423849,404,63
423862,390,63
423876,432,63
423886,382,63
423896,378,63
423906,364,63
423916,311,63
423927,340,63
423937,310,63
423945,304,63
423949,333,63
423968,286,63
423978,318,63
423979,311,63
423995,289,63
424009,335,63
424020,296,63
424028,312,63
424039,327,63
424050,292,63
424060,334,63
424068,308,63
424078,307,63
424091,338,63
424101,298,63
424111,327,63
424122,325,63
424129,299,63
424129,343,63
424153,304,63
424162,321,63
424170,333,63
424179,299,63
424193,344,63
424196,315,63
424213,311,63
424223,347,63
424230,303,63
424245,344,63
424255,342,63
424262,312,63
424276,352,63
424286,305,63
424295,317,63
424307,336,63
424312,296,63
424328,338,63
424337,315,63
424345,308,63
424350,345,63
424368,300,63
424378,330,63
424388,334,63
424395,308,63
424409,349,63
424420,322,63
424429,362,63
424429,486,63
424450,415,63
424461,348,63
424471,279,63
424478,311,63
424491,342,63
424496,305,63
424512,334,63
424522,335,63
424528,311,63
424543,354,63
424552,318,63
424562,334,63
424573,355,63
424584,316,63
424594,361,63
424595,344,63
424612,334,63
424624,377,63
424635,342,63
424645,375,63
424656,389,63
424662,367,63
424676,419,63
424687,387,63
424695,396,63
424707,402,63
424714,337,63
424714,357,63
424738,322,63
424745,300,63
424758,330,63
424768,285,63
424779,314,63
424789,314,63
424795,283,63
424810,328,63
424821,296,63
424829,303,63
424840,326,63
424851,286,63
424861,326,63
424871,314,63
424878,301,63
424892,341,63
424903,298,63
424912,324,63
424922,331,63
424929,297,63
424943,339,63
424954,308,63
424962,316,63
424974,340,63
424979,295,63
424995,339,63
425005,324,63
425012,305,63
425025,346,63
425035,304,63
425045,328,63
425057,333,63
425062,307,63
425077,354,63
425086,325,63
425095,327,63
425107,347,63
425114,294,63
425128,334,63
425138,321,63
425146,304,63
425150,346,63
425169,302,63
425178,326,63
425190,334,63
425195,301,63
425195,346,63
425219,318,63
425228,323,63
425240,349,63
425250,317,63
425261,420,63
425272,506,63
425279,406,63
425279,318,63
425295,291,63
425312,327,63
425323,339,63
425329,306,63
425329,350,63
425354,325,63
425363,326,63
425374,356,63
425384,318,63
425395,353,63
425406,346,63
425411,328,63
425426,371,63
425428,335,63
425445,355,63
425456,375,63
425467,344,63
425477,396,63
425479,379,63
425495,386,63
425508,424,63
425512,384,63
425528,413,63
425538,388,63
425546,340,63
425550,361,63
425564,309,63
425579,320,63
425590,329,63
425595,292,63
425595,332,63
425613,305,63
425629,303,63
425640,334,63
425651,290,63
425661,325,63
425672,318,63
425679,297,63
425693,338,63
425696,304,63
425712,318,63
425724,336,63
425729,300,63
425744,344,63
425750,317,63
425763,313,63
425775,343,63
425785,301,63
425795,334,63
425805,328,63
425813,302,63
425826,343,63
425828,304,63
425846,320,63
425857,338,63
425863,302,63
425877,345,63
425888,318,63
425895,314,63
425907,350,63
425916,305,63
425929,338,63
425940,338,63
425946,312,63
425951,355,63
425970,321,63
425978,339,63
425990,355,63
425995,312,63
425995,352,63
426021,317,63
426028,314,63
426042,348,63
426050,304,63
426061,333,63
426073,331,63
426079,302,63
426079,348,63
426103,312,63
426112,326,63
426123,345,63
426129,304,63
426129,347,63
426155,334,63
426162,391,63
426171,525,64
426186,422,64
426196,311,64
426196,307,64
426213,298,64
426227,346,64
426237,310,64
426246,323,64
426250,346,64
426263,304,64
426278,347,64
426288,327,64
426296,317,64
426296,358,64
426312,318,64
426328,347,64
426340,349,64
426346,324,64
426359,374,64
426370,342,64
426379,356,64
426379,389,64
426396,357,64
426411,400,64
426421,389,64
426429,374,64
426429,395,64
426450,329,64
426462,339,64
426473,328,64
426479,287,64
426479,330,64
426496,293,64
426512,301,64
426524,322,64
426529,282,64
426545,323,64
426555,306,64
426562,291,64
426575,333,64
426586,288,64
426596,317,64
426607,320,64
426612,290,64
426627,336,64
426636,301,64
426647,310,64
426657,338,64
426665,296,64
426678,339,64
426688,320,64
426698,307,64
426699,343,64
426719,302,64
426729,328,64
426740,334,64
426750,298,64
426759,344,64
426770,312,64
426780,318,64
426790,343,64
426795,302,64
426811,339,64
426817,324,64
426829,307,64
426843,351,64
426852,310,64
426862,332,64
426866,340,64
426878,306,64
426888,351,64
426895,317,64
426912,323,64
426924,348,64
426935,303,64
426945,343,64
426950,330,64
426962,314,64
426972,353,64
426986,310,64
426995,336,64
427007,342,64
427013,308,64
427027,354,64
427030,321,64
427045,331,64
427058,364,64
427062,315,64
427078,356,64
427088,336,64
427096,307,64
427096,348,64
427119,305,64
427129,323,64
427140,334,64
427145,300,64
427161,344,64
427171,316,64
427179,317,64
427191,346,64
427201,305,64
427212,345,64
427222,334,64
427228,323,64
427242,423,64
427251,483,64
427262,472,64
427273,328,64
427278,271,64
427294,347,64
427296,314,64
427312,311,64
427325,346,64
427335,300,64
427345,341,64
427356,332,64
427362,310,64
427376,353,64
427379,314,64
427395,334,64
427395,351,64
427412,313,64
427421,362,64
427438,339,64
427445,342,64
427459,381,64
427468,344,64
427479,389,64
427479,389,64
427496,371,64
427496,415,64
427513,365,64
427529,363,64
427540,357,64
427546,302,64
427551,337,64
427563,304,64
427578,298,64
427592,333,64
427597,286,64
427612,322,64
427612,315,64
427629,290,64
427643,337,64
427651,297,64
427662,314,64
427674,330,64
427680,291,64
427694,338,64
427695,312,64
427712,304,64
427725,338,64
427736,297,64
427746,331,64
427752,325,64
427762,299,64
427776,347,64
427779,304,64
427797,324,64
427808,341,64
427818,300,64
427828,344,64
427838,322,64
427845,314,64
427859,350,64
427868,305,64
427879,336,64
427889,335,64
427895,308,64
427910,351,64
427920,312,64
427929,327,64
427941,346,64
427946,304,64
427952,350,64
427972,326,64
427979,318,64
427992,355,64
428002,313,64
428012,342,64
428023,341,64
428029,312,64
428043,358,64
428053,319,64
428062,331,64
428066,349,64
428082,309,64
428094,352,64
428105,329,64
428112,320,64
428125,357,64
428135,313,64
428145,344,64
428156,344,64
428162,315,64
428177,359,64
428187,322,64
428196,334,64
428196,352,64
428218,310,64
428227,353,64
428239,333,64
428246,320,64
428252,368,64
428270,323,64
428279,350,64
428279,353,64
428295,314,64
428295,354,64
428312,319,64
428328,328,64
428341,349,64
428345,305,64
428361,346,64
428372,327,64
428379,315,64
428392,351,64
428403,309,64
428412,338,64
428423,339,64
428429,311,64
428429,376,64
428454,453,63
428462,506,63
428475,431,63
428479,240,63
428495,342,63
428506,322,63
428513,308,63
428525,348,63
428536,305,63
428545,334,63
428557,338,63
428566,305,63
428566,353,63
428587,320,63
428597,328,63
428608,355,63
428612,314,63
428628,359,63
428638,344,63
428645,335,63
428660,382,63
428670,343,63
428679,380,63
428690,395,63
428696,367,63
428710,418,63
428721,382,63
428728,376,63
428741,376,63
428751,313,63
428762,343,63
428772,318,63
428779,295,63
428793,335,63
428802,291,63
428812,320,63
428824,325,63
428830,290,63
428830,333,63
428853,302,63
428862,307,63
428872,336,63
428879,292,63
428895,329,63
428906,316,63
428912,296,63
428926,337,63
428937,295,63
428946,321,63
428953,331,63
428967,294,63
428977,339,63
428988,305,63
428995,310,63
429008,339,63
429019,295,63
429029,333,63
429039,322,63
429046,304,63
429053,344,63
429062,306,63
429079,329,63
429079,336,63
429095,299,63
429111,345,63
429121,314,63
429129,315,63
429142,346,63
429153,303,63
429162,338,63
429173,328,63
429179,307,63
429193,350,63
429204,308,63
429212,328,63
429224,336,63
429229,300,63
429245,348,63
429253,315,63
429262,313,63
429275,346,63
429279,303,63
429295,338,63
429307,328,63
429312,309,63
429320,352,63
429337,308,63
429345,329,63
429357,342,63
429368,304,63
429377,349,63
429388,319,63
429395,323,63
429409,356,63
429419,315,63
429429,356,63
429429,344,63
429446,324,63
429460,363,63
429470,308,63
429479,329,63
429490,345,63
429501,303,63
429511,348,63
429522,319,63
429529,315,63
429542,344,63
429546,302,63
429562,340,63
429573,334,63
429579,310,63
429594,353,63
429596,320,63
429612,418,62
429625,545,62
429629,451,62
429645,302,62
429655,297,62
429662,314,62
429669,343,62
429686,300,62
429696,336,62
429706,331,62
429712,309,62
429727,358,62
429738,318,62
429745,337,62
429758,352,62
429768,312,62
429778,360,62
429789,334,62
429796,333,62
429809,372,62
429813,336,62
429829,377,62
429829,380,62
429850,368,62
429861,418,62
429870,383,62
429878,404,62
429892,411,62
429896,349,62
429912,370,62
429922,325,62
429929,309,62
429942,337,62
429953,288,62
429963,322,62
429966,316,62
429979,290,62
429995,337,62
429996,296,62
430012,312,62
430022,331,62
430029,290,62
430045,335,62
430054,313,62
430062,306,62
430076,342,62
430079,299,62
430096,331,62
430107,326,62
430112,301,62
430127,348,62
430129,307,62
430145,319,62
430158,339,62
430163,300,62
430171,342,62
430179,319,62
430195,312,62
430210,346,62
430212,301,62
430229,333,62
430240,332,62
430246,306,62
430254,351,62
430272,311,62
430278,324,62
430292,345,62
430302,303,62
430312,346,62
430323,325,62
430329,315,62
430329,347,62
430354,303,62
430362,335,62
430371,332,62
430384,304,62
430394,352,62
430405,313,62
430412,326,62
430426,347,62
430435,304,62
430446,348,62
430455,330,62
430462,316,62
430476,361,62
430488,321,62
430496,350,62
430508,348,62
430513,310,62
430528,349,62
430538,313,62
430545,325,62
430558,342,62
430569,300,62
430579,342,62
430589,322,62
430595,311,62
430609,348,62
430614,303,62
430629,334,62
430629,335,62
430646,313,62
430661,382,62
430670,461,61
430678,491,61
430692,390,61
430703,242,61
430713,343,61
430723,317,61
430729,309,61
430744,348,61
430754,305,61
430764,336,61
430774,342,61
430779,313,61
430795,360,61
430805,327,61
430813,337,61
430825,361,61
430836,320,61
430845,365,61
430856,349,61
430864,343,61
430864,390,61
430887,354,61
430895,391,61
430907,404,61
430912,382,61
430928,426,61
430929,389,61
430947,377,61
430954,376,61
430969,312,61
430979,340,61
430990,315,61
430996,299,61
431010,337,61
431021,292,61
431030,317,61
431040,322,61
431045,290,61
431062,337,61
431071,299,61
431079,309,61
431092,334,61
431097,292,61
431112,332,61
431112,315,61
431129,299,61
431143,341,61
431153,294,61
431162,322,61
431174,329,61
431179,294,61
431195,339,61
431205,309,61
431215,315,61
431226,342,61
431236,299,61
431246,340,61
431255,321,61
431265,309,61
431277,348,61
431280,305,61
431295,333,61
431295,337,61
431313,307,61
431329,353,61
431332,315,61
431346,324,61
431359,350,61
431370,305,61
431379,346,61
431391,330,61
431396,315,61
431411,362,61
431418,321,61
431428,343,61
431442,352,61
431450,310,61
431462,344,61
431472,314,61
431480,320,61
431493,347,61
431503,299,61
431512,338,61
431524,325,61
431529,310,61
431545,348,61
431555,311,61
431562,336,61
431574,341,61
431585,311,61
431595,365,61
431605,415,61
431612,497,61
431617,431,61
431630,250,61
431645,333,61
431655,320,61
431663,307,61
431672,350,61
431679,308,61
431696,334,61
431709,346,61
431718,311,61
431729,358,61
431738,329,61
431746,331,61
431760,361,61
431770,320,61
431779,361,61
431790,351,61
431800,340,61
431811,391,61
431813,359,61
431829,394,61
431842,408,61
431847,379,61
431862,429,61
431872,394,61
431879,379,61
431893,379,61
431903,314,61
431912,337,61
431924,315,61
431934,293,61
431945,330,61
431954,289,61
431963,308,61
431975,318,61
431983,282,61
431996,326,61
432006,296,61
432014,301,61
432027,332,61
432037,288,61
432046,326,61
432057,315,61
432063,293,61
432078,337,61
432079,299,61
432095,322,61
432108,329,61
432116,295,61
432129,340,61
432140,312,61
432146,310,61
432156,338,61
432163,293,61
432178,330,61
432178,324,61
432195,299,61
432211,341,61
432222,306,61
432230,326,61
432230,337,61
432247,302,61
432263,347,61
432273,322,61
432279,327,61
432279,354,61
432296,308,61
432313,334,61
432322,327,61
432334,306,61
432345,344,61
432356,309,61
432363,329,61
432375,338,61
432379,299,61
432396,345,61
432406,314,61
432412,315,61
432427,347,61
432438,305,61
432445,350,61
432457,404,61
432465,470,61
432465,419,61
432479,256,61
432496,319,61
432510,335,61
432520,303,61
432529,349,61
432539,324,61
432546,320,61
432560,349,61
432568,314,61
432579,349,61
432592,342,61
432595,322,61
432611,366,61
432622,331,61
432629,352,61
432642,367,61
432653,340,61
432662,391,61
432673,373,61
432679,378,61
432694,418,61
432704,383,61
432712,420,61
432725,406,61
432734,364,61
432746,382,61
432755,321,61
432763,324,61
432763,328,61
432786,287,61
432796,331,61
432806,305,61
432813,302,61
432827,331,61
432837,287,61
432846,325,61
432858,314,61
432868,288,61
432878,337,61
432889,296,61
432896,316,61
432909,334,61
432916,293,61
432929,341,61
432940,312,61
432947,308,61
432961,340,61
432967,298,61
432979,330,61
432991,325,61
433001,301,61
433012,345,61
433023,306,61
433029,320,61
433043,339,61
433046,300,61
433064,342,61
433073,322,61
433084,317,61
433094,350,61
433105,315,61
433114,353,61
433125,344,61
433129,316,61
433145,348,61
433156,306,61
433163,329,61
433177,341,61
433179,302,61
433196,348,61
433207,319,61
433213,315,61
433227,348,61
433238,304,61
433245,337,61
433259,334,61
433269,309,61
433279,361,61
433288,342,61
433295,463,61
433310,470,61
433320,331,61
433330,295,61
433330,319,61
433345,308,61
433361,349,61
433371,306,61
433380,340,61
433380,339,61
433402,313,61
433412,359,61
433423,324,61
433429,339,61
433443,353,61
433446,314,61
433462,360,61
433474,339,61
433479,339,61
433495,379,61
433504,345,61
433512,388,61
433525,395,61
433529,377,61
433545,429,61
433557,389,61
433563,391,61
433571,382,61
433587,319,61
433596,344,61
433596,311,61
433618,298,61
433627,328,61
433638,285,61
433646,316,61
433659,316,61
433669,283,61
433678,329,61
433690,292,61
433696,303,61
433710,325,61
433719,286,61
433729,329,61
433740,310,61
433751,302,61
433761,339,61
433766,297,61
433779,331,61
433793,325,61
433803,300,61
433813,343,61
433823,304,61
433829,315,61
433843,333,61
433854,295,61
433863,335,61
433874,313,61
433885,307,61
433894,343,61
433906,300,61
433913,330,61
433926,332,61
433935,303,61
433946,350,61
433956,315,61
433962,335,61
433977,356,61
433988,312,61
433996,345,61
434008,322,61
434018,312,61
434029,347,61
434039,303,61
434046,334,61
434059,332,61
434070,304,61
434078,348,61
434090,312,61
434096,322,61
434096,342,61
434112,305,61
434129,349,61
434142,347,61
434152,436,61
434162,512,61
434172,381,61
434179,284,61
434179,326,61
434203,298,61
434213,346,61
434222,311,61
434229,326,61
434244,349,61
434246,305,61
434262,347,61
434275,329,61
434280,321,61
434295,361,61
434306,318,61
434313,351,61
434320,356,61
434336,330,61
434347,381,61
434357,351,61
434362,371,61
434377,404,61
434388,369,61
434396,418,61
434399,400,61
434419,377,61
434428,397,61
434439,326,61
434446,335,61
434460,325,61
434469,287,61
434479,328,61
434479,296,61
434496,302,61
434511,323,61
434521,282,61
434530,324,61
434530,308,61
434552,293,61
434562,335,61
434573,287,61
434580,317,61
434593,322,61
434595,290,61
434612,338,61
434624,304,61
434632,313,61
434644,334,61
434654,293,61
434662,335,61
434676,317,61
434686,305,61
434696,342,61
434697,300,61
434713,327,61
434723,331,61
434728,297,61
434746,342,61
434758,312,61
434763,321,61
434778,344,61
434788,300,61
434796,340,61
434809,323,61
434818,308,61
434829,349,61
434839,307,61
434847,331,61
434860,338,61
434867,305,61
434879,353,61
434879,324,61
434897,333,61
434911,355,61
434921,309,61
434929,341,61
434942,323,61
434946,311,61
434962,347,61
434973,302,61
434979,328,61
434993,332,61
434996,303,61
435013,349,61
435022,314,61
435030,325,61
435030,347,61
435055,307,61
435063,353,61
435075,366,61
435086,465,61
435096,499,61
435107,354,61
435112,286,61
435127,338,61
435137,301,61
435146,347,61
435146,316,61
435162,320,61
435178,348,61
435180,308,61
435195,348,61
435208,334,61
435219,321,61
435229,365,61
435229,324,61
435245,351,61
435260,360,61
435263,332,61
435279,379,61
435291,353,61
435301,372,61
435312,409,61
435322,371,61
435329,418,61
435343,404,61
435353,378,61
435363,395,61
435365,325,61
435379,333,61
435393,328,61
435404,290,61
435413,334,61
435424,300,61
435435,304,61
435445,331,61
435445,287,61
435463,328,61
435476,311,61
435480,294,61
435496,337,61
435507,294,61
435513,320,61
435522,327,61
435537,291,61
435546,339,61
435559,308,61
435568,310,61
435578,342,61
435588,296,61
435596,334,61
435609,319,61
435620,302,61
435629,342,61
435640,304,61
435645,325,61
435661,333,61
435671,301,61
435679,347,61
435679,317,61
435696,316,61
435711,345,61
435721,304,61
435729,343,61
435742,328,61
435753,310,61
435763,354,61
435767,311,61
435779,334,61
435794,345,61
435804,310,61
435813,354,61
435824,320,61
435835,325,61
435846,349,61
435856,307,61
435863,351,61
435877,332,61
435886,323,61
435896,370,61
435907,326,61
435917,348,61
435928,353,61
435938,306,61
435946,353,61
435959,322,61
435969,321,61
435979,347,61
435989,303,61
435998,345,61
435998,334,61
436020,316,61
436029,357,61
436040,315,61
436046,336,61
436061,346,61
436071,319,61
436080,445,60
436092,509,60
436103,457,60
436113,307,60
436122,285,60
436130,344,60
436130,328,60
436146,313,60
436163,353,60
436174,310,60
436184,336,60
436192,345,60
436204,309,60
436213,360,60
436221,328,60
436229,333,60
436246,363,60
436256,322,60
436263,363,60
436276,355,60
436287,343,60
436296,394,60
436308,361,60
436313,392,60
436328,409,60
436337,376,60
436346,423,60
436346,379,60
436363,359,60
436379,365,60
436390,305,60
436396,334,60
436410,317,60
436420,297,60
436429,337,60
436441,300,60
436451,322,60
436461,332,60
436471,294,60
436479,341,60
436492,313,60
436503,313,60
436513,347,60
436523,298,60
436530,337,60
436530,328,60
436545,305,60
436562,349,60
436574,309,60
436585,331,60
436594,343,60
436605,307,60
436613,354,60
436626,321,60
436636,326,60
436646,354,60
436656,313,60
436665,350,60
436677,344,60
436680,321,60
436696,363,60
436708,321,60
436718,342,60
436728,356,60
436739,320,60
436746,366,60
436758,334,60
436769,336,60
436779,368,60
436790,326,60
436797,363,60
436797,354,60
436813,336,60
436829,377,60
436842,334,60
436846,351,60
436862,367,60
436870,328,60
436879,374,60
436893,344,60
436897,342,60
436913,377,60
436923,331,60
436931,367,60
436944,367,60
436954,346,60
436963,389,60
436975,343,60
436985,352,60
436995,360,60
437005,325,60
437014,365,60
437026,334,60
437030,335,60
437046,363,60
437057,320,60
437066,355,60
437077,348,60
437087,327,60
437096,370,60
437108,328,60
437118,353,60
437128,397,60
437139,485,60
437146,562,60
437159,402,60
437163,268,60
437180,361,60
437191,308,60
437196,348,60
437211,339,60
437221,317,60
437228,362,60
437241,320,60
437252,339,60
437262,357,60
437273,320,60
437280,365,60
437280,338,60
437296,337,60
437313,374,60
437323,329,60
437329,371,60
437344,368,60
437346,358,60
437363,411,60
437375,381,60
437380,405,60
437395,422,60
437406,381,60
437413,405,60
437426,353,60
437436,330,60
437446,342,60
437446,290,60
437463,323,60
437478,314,60
437489,288,60
437496,330,60
437509,290,60
437519,308,60
437529,322,60
437539,285,60
437546,329,60
437559,302,60
437563,303,60
437580,332,60
437591,284,60
437596,324,60
437611,317,60
437621,294,60
437630,337,60
437642,298,60
437652,312,60
437663,326,60
437673,289,60
437679,334,60
437693,306,60
437704,303,60
437713,337,60
437724,292,60
437729,329,60
437745,318,60
437755,296,60
437763,338,60
437763,296,60
437786,315,60
437795,329,60
437796,292,60
437812,338,60
437826,310,60
437837,307,60
437846,338,60
437857,294,60
437868,328,60
437878,321,60
437888,296,60
437896,342,60
437909,301,60
437919,318,60
437929,330,60
437939,293,60
437946,340,60
437960,312,60
437964,310,60
437980,346,60
437980,298,60
438001,339,60
438011,335,60
438021,312,60
438030,360,60
438042,310,60
438052,317,60
438063,332,60
438068,293,60
438079,334,60
438093,308,60
438096,302,60
438112,336,60
438123,290,60
438132,327,60
438145,320,60
438155,297,60
438163,342,60
438175,301,60
438180,330,60
438196,415,61
438206,496,61
438212,503,61
438226,275,61
438230,276,61
438245,339,61
438258,287,61
438264,323,61
438279,316,61
438279,294,61
438296,337,61
438296,299,61
438314,315,61
438329,333,61
438329,297,61
438346,346,61
438360,322,61
438363,321,61
438379,358,61
438392,317,61
438397,358,61
438412,360,61
438422,345,61
438430,398,61
438430,368,61
438448,390,61
438463,407,61
438472,356,61
438480,377,61
438495,327,61
438504,305,61
438513,326,61
438525,278,61
438529,307,61
438545,303,61
438556,274,61
438565,320,61
438576,280,61
438587,296,61
438597,315,61
438597,272,61
438613,320,61
438628,294,61
438630,290,61
438646,326,61
438658,281,61
438664,314,61
438672,310,61
438679,286,61
438697,331,61
438710,290,61
438719,307,61
438730,323,61
438740,284,61
438746,328,61
438761,304,61
438772,299,61
438779,334,61
438792,287,61
438802,317,61
438812,315,61
438814,292,61
438830,334,61
438843,295,61
438854,313,61
438863,331,61
438874,291,61
438879,336,61
438894,310,61
438905,303,61
438913,345,61
438917,305,61
438930,337,61
438945,332,61
438946,298,61
438964,338,61
438973,302,61
438980,317,61
438997,336,61
439003,294,61
439013,336,61
439023,311,61
439038,307,61
439046,341,61
439058,297,61
439069,332,61
439079,323,61
439089,309,61
439097,419,63
439110,496,63
439120,464,63
439129,300,63
439141,265,63
439146,343,63
439161,311,63
439171,308,63
439180,341,63
439191,298,63
439196,333,63
439213,330,63
439223,306,63
439229,352,63
439243,316,63
439253,332,63
439263,353,63
439274,317,63
439284,364,63
439295,349,63
439305,346,63
439315,388,63
439326,354,63
439336,400,63
439346,405,63
439347,385,63
439363,431,63
439378,376,63
439387,361,63
439397,355,63
439407,300,63
439413,331,63
439427,300,63
439439,291,63
439447,327,63
439460,283,63
439469,315,63
439480,313,63
439490,284,63
439497,327,63
439510,291,63
439517,305,63
439529,327,63
439540,286,63
439546,332,63
439562,306,63
439564,299,63
439580,335,63
439593,289,63
439597,323,63
439613,320,63
439623,294,63
439630,337,63
439644,300,63
439654,316,63
439664,333,63
439670,295,63
439679,338,63
439695,314,63
439705,308,63
439713,345,63
439725,300,63
439729,334,63
439746,338,63
439756,314,63
439764,353,63
439777,311,63
439787,317,63
439796,336,63
439809,296,63
439814,337,63
439829,313,63
439829,310,63
439847,345,63
439847,298,63
439864,331,63
439880,330,63
439890,305,63
439896,347,63
439911,313,63
439919,339,63
439929,449,64
439942,482,64
439947,429,64
439962,254,64
439971,303,64
439981,344,64
439993,303,64
440003,337,64
440013,335,64
440021,309,64
440030,355,64
440030,317,64
440047,333,64
440063,353,64
440072,314,64
440080,360,64
440095,340,64
440106,334,64
440115,373,64
440123,335,64
440131,377,64
440147,381,64
440158,364,64
440165,419,64
440177,390,64
440188,405,64
440196,415,64
440209,353,64
440218,368,64
440229,330,64
440239,306,64
440247,338,64
440260,288,64
440270,318,64
440279,317,64
440291,285,64
440297,330,64
440311,291,64
440321,305,64
440330,325,64
440330,286,64
440347,330,64
440362,312,64
440373,301,64
440380,337,64
440393,295,64
440403,325,64
440414,324,64
440424,299,64
440429,342,64
440445,306,64
440454,316,64
440465,338,64
440467,298,64
440486,338,64
440495,317,64
440506,308,64
440513,345,64
440527,303,64
440537,333,64
440546,333,64
440558,311,64
440565,358,64
440578,323,64
440588,335,64
440597,342,64
440597,298,64
440614,343,64
440629,319,64
440630,307,64
440646,342,64
440660,298,64
440669,328,64
440680,330,64
440680,303,64
440701,348,64
440711,314,64
440722,328,64
440730,351,64
440742,320,64
440747,455,65
440762,481,65
440773,370,65
440780,289,65
440794,304,65
440804,331,65
440813,334,65
440825,306,65
440829,353,65
440845,321,65
440855,333,65
440865,352,65
440876,314,65
440886,358,65
440896,337,65
440907,332,65
440914,373,65
440914,333,65
440930,366,65
440946,374,65
440958,352,65
440965,407,65
440971,378,65
440989,398,65
440996,418,65
441009,385,65
441013,415,65
441029,368,65
441040,335,65
441046,357,65
441060,301,65
441070,323,65
441080,321,65
441091,292,65
441101,339,65
441112,298,65
441122,308,65
441131,329,65
441143,291,65
441146,329,65
441163,311,65
441174,304,65
441180,337,65
441194,301,65
441196,329,65
441212,331,65
441225,303,65
441230,348,65
441246,309,65
441256,323,65
441265,345,65
441276,304,65
441280,346,65
441296,328,65
441307,316,65
441313,355,65
441328,317,65
441331,350,65
441346,354,65
441358,328,65
441366,367,65
441379,334,65
441389,332,65
441396,348,65
441410,310,65
441420,350,65
441430,330,65
441430,317,65
441446,358,65
441461,313,65
441465,344,65
441480,341,65
441492,314,65
441497,361,65
441512,329,65
441522,342,65
441529,375,65
441543,397,65
441553,522,66
441563,401,66
441567,283,66
441580,355,66
441594,320,66
441597,349,66
441614,357,66
441626,328,66
441630,372,66
441646,340,66
441656,351,66
441665,376,66
441676,337,66
441687,379,66
441697,363,66
441707,351,66
441713,393,66
441727,356,66
441738,392,66
441746,400,66
441758,377,66
441769,432,66
441779,403,66
441789,420,66
441797,444,66
441810,396,66
441814,411,66
441829,369,66
441841,339,66
441846,361,66
441846,312,66
441871,340,66
441880,338,66
441880,307,66
441898,349,66
441913,309,66
441921,320,66
441930,343,66
441943,302,66
441954,342,66
441963,322,66
441974,314,66
441980,351,66
441995,308,66
442005,336,66
442015,339,66
442025,305,66
442035,349,66
442046,317,66
442056,325,66
442066,345,66
442066,302,66
442081,340,66
442096,329,66
442108,316,66
442114,358,66
442122,320,66
442139,343,66
442147,349,66
442159,312,66
442169,344,66
442180,309,66
442190,315,66
442196,337,66
442196,294,66
442221,338,66
442230,317,66
442240,307,66
442247,344,66
442261,303,66
442272,330,66
442279,333,66
442293,300,66
442302,348,66
442313,329,66
442323,428,66
442330,491,66
442330,343,66
442347,281,66
442364,312,66
442373,294,66
442380,337,66
442395,298,66
442397,326,66
442413,333,66
442423,302,66
442430,349,66
442446,315,66
442456,321,66
442466,346,66
442477,306,66
442488,350,66
442497,336,66
442497,325,66
442513,371,66
442529,337,66
442530,374,66
442547,384,66
442559,360,66
442566,410,66
442580,382,66
442580,374,66
442597,374,66
442611,309,66
442613,332,66
442630,304,66
442630,283,66
442647,318,66
442663,275,66
442671,303,66
442681,305,66
442693,271,66
442703,316,66
442713,282,66
442724,289,66
442730,318,66
442743,277,66
442747,314,66
442765,299,66
442775,288,66
442784,330,66
442795,289,66
442806,316,66
442815,319,66
442826,286,66
442831,330,66
442846,298,66
442856,302,66
442866,329,66
442878,287,66
442880,326,66
442897,311,66
442897,295,66
442914,336,66
442928,298,66
442939,324,66
442947,327,66
442959,303,66
442970,347,66
442979,316,66
442980,315,66
442996,332,66
443011,293,66
443022,333,66
443031,315,66
443042,298,66
443047,335,66
443063,295,66
443068,320,66
443080,327,66
443093,294,66
443098,339,66
443113,306,66
443124,313,66
443130,342,66
443144,332,66
443155,488,66
443164,444,66
443176,326,66
443180,295,66
443195,295,66
443198,320,66
443214,329,66
443226,298,66
443230,345,66
443246,310,66
443257,318,66
443266,345,66
443270,300,66
443279,344,66
443298,333,66
443309,318,66
443319,358,66
443329,317,66
443339,348,66
443347,359,66
443347,336,66
443366,388,66
443380,365,66
443391,375,66
443397,408,66
443412,363,66
443421,390,66
443429,352,66
443442,315,66
443447,338,66
443463,286,66
443473,310,66
443480,314,66
443494,278,66
443496,324,66
443514,294,66
443519,301,66
443531,326,66
443531,281,66
443547,321,66
443563,306,66
443576,289,66
443581,328,66
443596,288,66
443596,315,66
443613,323,66
443627,289,66
443638,330,66
443646,300,66
443657,303,66
443667,333,66
443678,291,66
443681,331,66
443696,316,66
443696,297,66
443716,337,66
443729,293,66
443740,318,66
443746,325,66
443760,290,66
443769,334,66
443779,304,66
443779,307,66
443797,336,66
443797,295,66
443822,333,66
443830,322,66
443843,309,66
443853,355,66
443863,311,66
443870,332,66
443880,334,66
443880,292,66
443904,337,66
443914,307,66
443925,312,66
443935,338,66
443945,294,66
443955,334,66
443963,320,66
443976,303,66
443980,346,66
443996,304,66
443996,326,66
444016,340,66
444027,315,66
444037,453,67
444046,475,67
444046,412,67
444067,286,67
444078,285,67
444080,330,67
444099,319,67
444109,302,67
444114,343,67
444130,306,67
444140,330,67
444147,339,67
444147,305,67
444167,350,67
444180,323,67
444192,324,67
444197,356,67
444212,315,67
444221,357,67
444230,351,67
444243,336,67
444247,385,67
444262,355,67
444274,384,67
444280,400,67
444280,366,67
444297,407,67
444313,358,67
444324,335,67
444330,346,67
444345,293,67
444355,325,67
444363,313,67
444376,292,67
444380,335,67
444397,292,67
444407,314,67
444417,326,67
444427,286,67
444429,334,67
444448,307,67
444458,304,67
444468,337,67
444479,289,67
444489,325,67
444496,315,67
444496,295,67
444513,339,67
444530,299,67
444540,317,67
444546,331,67
444561,294,67
444571,340,67
444579,312,67
444591,308,67
444600,341,67
444612,298,67
444623,333,67
444630,326,67
444643,305,67
444646,348,67
444663,306,67
444673,325,67
444680,339,67
444694,302,67
444696,345,67
444713,319,67
444723,315,67
444731,347,67
444746,304,67
444756,338,67
444763,332,67
444777,310,67
444780,351,67
444797,309,67
444807,327,67
444813,343,67
444822,304,67
444839,349,67
444847,322,67
444859,322,67
444869,352,67
444879,309,67
444887,352,67
444898,346,67
444910,322,67
444919,365,67
444930,316,67
444941,328,67
444947,344,67
444961,306,67
444972,350,67
444981,323,67
444992,322,67
444996,355,67
445012,308,67
445023,343,67
445034,336,67
445044,312,67
445054,356,67
445064,316,67
445074,343,67
445079,447,66
445095,488,66
445105,470,66
445113,271,66
445116,301,66
445135,348,66
445146,300,66
445157,333,66
445163,331,66
445177,306,66
445180,354,66
445197,315,66
445208,333,66
445214,350,66
445228,313,66
445229,356,66
445248,334,66
445259,331,66
445269,368,66
445279,330,66
445290,367,66
445296,372,66
445311,355,66
445317,404,66
445330,375,66
445342,397,66
445347,408,66
445362,358,66
445368,379,66
445381,336,66
445393,313,66
445397,339,66
445413,290,66
445422,321,66
445431,321,66
445445,292,66
445446,336,66
445463,301,66
445475,314,66
445480,330,66
445495,296,66
445496,341,66
445514,313,66
445526,307,66
445537,340,66
445547,296,66
445558,327,66
445563,325,66
445568,299,66
445580,343,66
445598,303,66
445608,318,66
445618,339,66
445628,296,66
445638,341,66
445647,318,66
445659,309,66
445670,344,66
445680,304,66
445690,337,66
445697,335,66
445711,305,66
445714,351,66
445730,312,66
445730,324,66
445747,346,66
445747,303,66
445773,346,66
445781,325,66
445793,314,66
445797,351,66
445813,308,66
445824,343,66
445834,342,66
445844,308,66
445855,355,66
445863,319,66
445875,331,66
445885,349,66
445896,308,66
445905,352,66
445913,328,66
445926,319,66
445937,358,66
445947,312,66
445957,345,66
445963,345,66
445978,314,66
445988,367,66
445997,332,66
446009,343,66
446019,365,66
446029,314,66
446039,347,66
446046,328,66
446060,317,66
446069,354,66
446080,308,66
446090,337,66
446097,334,66
446111,302,66
446121,349,66
446130,315,66
446142,327,66
446148,348,66
446162,306,66
446169,359,66
446180,433,66
446193,523,66
446203,488,66
446213,245,66
446225,317,66
446230,332,66
446245,299,66
446255,346,66
446264,312,66
446275,321,66
446286,344,66
446296,306,66
446298,347,66
446313,329,66
446327,320,66
446330,360,66
446346,316,66
446357,347,66
446363,353,66
446378,329,66
446389,381,66
446397,352,66
446409,370,66
446419,404,66
446429,371,66
446430,420,66
446446,397,66
446460,373,66
446471,390,66
446480,325,66
446491,336,66
446501,331,66
446512,289,66
446522,336,66
446530,302,66
446542,309,66
446553,330,66
446563,289,66
446570,328,66
446580,312,66
446594,298,66
446597,338,66
446613,294,66
446625,321,66
446635,329,66
446644,297,66
446655,345,66
446664,307,66
446676,314,66
446686,340,66
446696,297,66
446706,337,66
446715,321,66
446727,305,66
446737,343,66
446747,299,66
446758,327,66
446766,332,66
446779,298,66
446789,344,66
446797,312,66
446809,317,66
446820,346,66
446829,302,66
446831,342,66
446847,329,66
446860,310,66
446870,351,66
446881,308,66
446892,336,66
446897,343,66
446897,309,66
446914,351,66
446931,319,66
446931,323,66
446953,351,66
446963,307,66
446973,345,66
446980,331,66
446994,317,66
447004,356,66
447013,315,66
447025,346,66
447035,355,66
447045,322,66
447056,366,66
447066,325,66
447076,323,66
447086,353,66
447097,309,66
447107,346,66
447116,331,66
447116,313,66
447130,355,66
447147,311,66
447158,338,66
447168,346,66
447179,311,66
447190,357,66
447196,340,66
447209,377,66
447218,530,66
447230,478,66
447240,368,66
447247,284,66
447261,316,66
447271,353,66
447280,312,66
447292,335,66
447297,344,66
447312,312,66
447323,360,66
447330,328,66
447343,330,66
447353,361,66
447364,319,66
447374,361,66
447380,351,66
447394,338,66
447404,384,66
447413,347,66
447426,377,66
447430,394,66
447446,368,66
447456,422,66
447464,398,66
447476,402,66
447480,421,66
447497,360,66
447497,374,66
447514,343,66
447528,311,66
447538,350,66
447546,304,66
447558,323,66
447569,332,66
447579,297,66
447589,342,66
447597,310,66
447597,312,66
447620,341,66
447630,298,66
447640,335,66
447649,325,66
447662,304,66
447671,346,66
447680,307,66
447680,329,66
447696,338,66
447712,304,66
447723,346,66
447733,319,66
447742,318,66
447754,348,66
447758,305,66
447774,341,66
447785,333,66
447792,308,66
447805,350,66
447815,310,66
447825,329,66
447837,343,66
447842,305,66
447842,351,66
447867,320,66
447875,319,66
447887,352,66
447892,307,66
447907,342,66
447918,336,66
447925,313,66
447938,359,66
447949,318,66
447958,333,66
447969,358,66
447975,321,66
447975,361,66
447992,335,66
448009,322,66
448021,346,66
448025,306,66
448041,339,66
448052,330,66
448059,307,66
448072,349,66
448075,311,66
448092,330,66
448103,342,66
448108,306,66
448123,350,66
448134,323,66
448142,329,66
448142,375,66
448165,439,66
448175,493,66
