Timestamp,ECGValue,BPM
318179,304,56
318179,343,56
318196,337,56
318209,315,56
318220,361,56
318230,318,56
318240,339,56
318251,355,56
318262,321,56
318271,370,56
318280,346,56
318280,346,56
318297,391,56
318312,354,56
318322,400,56
318329,398,56
318343,381,56
318353,428,56
318362,373,56
318374,371,56
318384,364,56
318394,303,56
318404,339,56
318414,306,56
318425,298,56
318429,333,56
318445,288,56
318456,322,56
318465,317,56
318477,288,56
318479,337,56
318496,293,56
318506,315,56
318516,330,56
318524,290,56
318529,343,56
318547,314,56
318558,311,56
318562,345,56
318579,300,56
318579,335,56
318596,331,56
318596,305,56
318613,353,56
318629,312,56
318641,327,56
318646,343,56
318661,304,56
318671,351,56
318680,321,56
318680,315,56
318702,352,56
318713,304,56
318722,336,56
318729,333,56
318744,305,56
318754,352,56
318762,311,56
318774,327,56
318784,348,56
318795,305,56
318805,361,56
318813,336,56
318822,325,56
318830,362,56
318846,306,56
318856,336,56
318862,333,56
318877,304,56
318879,348,56
318895,309,56
318908,323,56
318913,344,56
318929,300,56
318929,350,56
318946,325,56
318946,314,56
318969,351,56
318979,312,56
318990,366,56
318996,476,56
318996,439,56
319014,384,56
319030,267,56
319041,324,56
319047,338,56
319061,298,56
319072,343,56
319080,321,56
319093,313,56
319103,352,56
319112,309,56
319124,340,56
319129,344,56
319144,315,56
319153,363,56
319162,326,56
319174,339,56
319185,368,56
319195,328,56
319206,377,56
319215,366,56
319222,367,56
319229,415,56
319246,377,56
319256,409,56
319263,405,56
319277,350,56
319288,372,56
319296,319,56
319309,314,56
319317,328,56
319328,284,56
319339,325,56
319346,306,56
319360,293,56
319363,332,56
319379,286,56
319389,320,56
319396,322,56
319411,290,56
319421,334,56
319429,299,56
319441,309,56
319451,335,56
319463,292,56
319472,335,56
319480,319,56
319493,303,56
319504,345,56
319513,296,56
319523,324,56
319529,332,56
319545,297,56
319554,344,56
319563,313,56
319575,316,56
319580,344,56
319596,298,56
319606,340,56
319613,325,56
319626,309,56
319634,351,56
319646,307,56
319657,331,56
319663,340,56
319669,312,56
319688,362,56
319696,327,56
319708,327,56
319714,344,56
319729,296,56
319729,340,56
319746,325,56
319760,304,56
319770,348,56
319780,306,56
319790,327,56
319796,334,56
319811,303,56
319821,348,56
319830,314,56
319842,319,56
319846,358,56
319862,336,56
319873,482,58
319880,463,58
319893,350,58
319903,308,58
319913,308,58
319924,327,58
319934,342,58
319944,305,58
319946,355,58
319962,322,58
319975,328,58
319986,365,58
319996,322,58
319997,363,58
320013,351,58
320027,334,58
320030,379,58
320046,343,58
320058,368,58
320063,387,58
320078,356,58
320089,415,58
320097,397,58
320109,403,58
320116,444,58
320129,402,58
320139,431,58
320147,403,58
320147,359,58
320170,385,58
320179,330,58
320191,344,58
320196,351,58
320212,311,58
320219,358,58
320230,331,58
320230,329,58
320246,361,58
320263,318,58
320273,355,58
320279,348,58
320294,324,58
320304,373,58
320312,328,58
320324,347,58
320335,363,58
320345,324,58
320355,373,58
320364,346,58
320376,342,58
320386,376,58
320396,332,58
320407,367,58
320413,360,58
320428,335,58
320437,377,58
320446,336,58
320458,357,58
320468,370,58
320478,330,58
320480,375,58
320496,346,58
320509,340,58
320513,376,58
320529,328,58
320540,363,58
320546,356,58
320560,327,58
320570,372,58
320580,332,58
320591,347,58
320596,364,58
320612,322,58
320622,370,58
320629,347,58
320642,339,58
320652,377,58
320662,335,58
320673,367,58
320679,363,58
320679,329,58
320704,367,58
320713,325,58
320724,339,58
320731,360,58
320731,314,58
320756,357,58
320763,333,58
320776,324,58
320780,362,58
320796,315,58
320807,347,58
320813,347,58
320827,313,58
320837,368,58
320846,358,58
320859,483,60
320868,504,60
320879,355,60
320889,299,60
320896,320,60
320910,309,60
320917,350,60
320929,299,60
320929,331,60
320947,332,60
320961,303,60
320964,351,60
320980,314,60
320980,326,60
320997,349,60
321012,306,60
321021,352,60
321030,331,60
321042,323,60
321052,366,60
321063,325,60
321074,363,60
321079,374,60
321094,349,60
321104,403,60
321113,368,60
321124,372,60
321135,378,60
321145,312,60
321156,341,60
321165,306,60
321177,284,60
321186,323,60
321196,277,60
321207,303,60
321213,307,60
321228,274,60
321230,321,60
321246,283,60
321246,292,60
321264,319,60
321279,272,60
321290,316,60
321296,298,60
321310,281,60
321320,324,60
321330,281,60
321330,309,60
321346,312,60
321362,278,60
321372,328,60
321379,291,60
321392,298,60
321402,324,60
321413,279,60
321423,321,60
321430,306,60
321430,288,60
321446,333,60
321463,285,60
321474,316,60
321480,320,60
321494,285,60
321497,334,60
321513,298,60
321526,303,60
321531,328,60
321546,284,60
321546,327,60
321564,312,60
321572,292,60
321587,337,60
321596,291,60
321607,317,60
321612,326,60
321628,287,60
321638,336,60
321646,304,60
321658,304,60
321668,335,60
321679,288,60
321679,330,60
321697,318,60
321697,297,60
321721,343,60
321731,298,60
321740,322,60
321746,331,60
321762,294,60
321772,344,60
321780,308,60
321780,319,60
321796,350,60
321813,301,60
321824,346,60
321830,327,60
321844,297,60
321847,344,60
321864,298,60
321875,317,60
321879,330,60
321895,290,60
321905,337,60
321912,308,60
321925,307,60
321936,342,60
321946,295,60
321956,335,60
321962,327,60
321977,316,60
321980,451,60
321997,478,60
321997,436,60
322014,279,60
322028,273,60
322039,333,60
322046,304,60
322046,300,60
322069,335,60
322079,289,60
322090,330,60
322096,320,60
322110,296,60
322121,346,60
322129,303,60
322142,322,60
322151,342,60
322161,304,60
322167,354,60
322179,327,60
322193,331,60
322196,375,60
322212,335,60
322224,379,60
322229,380,60
322244,359,60
322255,409,60
322263,357,60
322275,354,60
322285,352,60
322295,294,60
322297,333,60
322313,301,60
322326,292,60
322337,327,60
322347,278,60
322358,314,60
322363,310,60
322378,282,60
322388,327,60
322396,286,60
322408,303,60
322419,321,60
322428,278,60
322430,324,60
322446,298,60
322446,291,60
322470,331,60
322480,280,60
322480,318,60
322496,316,60
322511,287,60
322513,336,60
322529,294,60
322542,308,60
322552,329,60
322562,286,60
322568,334,60
322580,308,60
322594,300,60
322597,340,60
322613,291,60
322624,326,60
322630,326,60
322644,298,60
322654,344,60
322663,302,60
322675,314,60
322685,338,60
322695,294,60
322706,341,60
322713,316,60
322727,304,60
322737,346,60
322747,296,60
322757,328,60
322765,329,60
322765,297,60
322787,346,60
322797,309,60
322809,319,60
322818,345,60
322828,296,60
322839,346,60
322846,325,60
322846,312,60
322871,355,60
322880,307,60
322890,338,60
322896,341,60
322896,304,60
322913,354,60
322930,319,60
322943,326,60
322946,351,60
322963,304,60
322972,347,60
322980,329,60
322980,314,60
322997,354,60
323013,309,60
323024,343,60
323031,344,60
323031,316,60
323055,368,60
323063,328,60
323073,342,60
323080,362,60
323096,304,60
323107,348,60
323112,329,60
323127,313,60
323137,356,60
323147,309,60
323158,336,60
323168,340,60
323179,305,60
323180,356,60
323197,320,60
323209,327,60
323219,354,60
323229,317,60
323230,447,58
323247,534,58
323260,458,58
323270,306,58
323279,288,58
323291,328,58
323296,334,58
323312,298,58
323322,349,58
323330,314,58
323343,319,58
323347,351,58
323362,306,58
323373,346,58
323379,331,58
323394,316,58
323404,363,58
323414,318,58
323425,346,58
323430,362,58
323445,331,58
323447,384,58
323464,360,58
323474,369,58
323486,410,58
323497,369,58
323507,415,58
323514,395,58
323520,357,58
323538,380,58
323546,315,58
323558,329,58
323568,332,58
323579,290,58
323589,338,58
323596,303,58
323610,307,58
323620,339,58
323630,291,58
323640,330,58
323646,322,58
323660,296,58
323670,340,58
323680,297,58
323680,321,58
323697,334,58
323712,294,58
323721,343,58
323731,311,58
323742,308,58
323747,344,58
323763,294,58
323773,334,58
323779,325,58
323794,300,58
323805,346,58
323813,299,58
323824,321,58
323835,336,58
323845,297,58
323855,348,58
323864,317,58
323876,313,58
323880,348,58
323896,300,58
323896,336,58
323912,328,58
323928,303,58
323937,352,58
323947,308,58
323947,324,58
323969,342,58
323979,300,58
323989,350,58
323997,321,58
324010,314,58
324020,352,58
324030,303,58
324030,340,58
324046,335,58
324061,308,58
324072,356,58
324081,316,58
324081,331,58
324102,348,58
324112,307,58
324123,354,58
324130,327,58
324144,319,58
324154,357,58
324163,307,58
324174,341,58
324180,338,58
324180,308,58
324196,357,58
324213,319,58
324226,332,58
324230,358,58
324246,319,58
324247,363,58
324263,341,58
324277,323,58
324287,354,58
324297,304,58
324297,341,58
324318,337,58
324327,302,58
324331,350,58
324347,311,58
324347,322,58
324364,346,58
324380,303,58
324389,352,58
324397,327,58
324409,316,58
324421,367,58
324430,417,56
324442,555,56
324447,488,56
324447,248,56
324472,337,56
324480,310,56
324492,315,56
324502,341,56
324513,296,56
324523,341,56
324530,319,56
324535,307,56
324554,355,56
324563,307,56
324575,340,56
324579,343,56
324595,314,56
324605,364,56
324614,330,56
324620,345,56
324631,376,56
324646,336,56
324656,392,56
324663,380,56
324676,372,56
324681,421,56
324696,374,56
324707,401,56
324717,384,56
324728,328,56
324739,357,56
324746,305,56
324759,305,56
324765,330,56
324780,282,56
324780,327,56
324796,308,56
324811,291,56
324820,337,56
324830,289,56
324841,317,56
324847,324,56
324862,287,56
324872,336,56
324880,301,56
324892,305,56
324896,335,56
324913,289,56
324923,332,56
324930,316,56
324944,299,56
324947,344,56
324963,296,56
324974,324,56
324980,333,56
324995,295,56
324996,343,56
325013,307,56
325026,312,56
325030,343,56
325046,295,56
325057,337,56
325063,326,56
325077,306,56
325080,352,56
325096,306,56
325096,331,56
325113,340,56
325129,304,56
325138,347,56
325146,317,56
325159,320,56
325169,350,56
325180,302,56
325190,345,56
325197,332,56
325211,312,56
325221,355,56
325230,306,56
325241,333,56
325247,343,56
325263,306,56
325265,356,56
325282,323,56
325294,321,56
325296,356,56
325312,309,56
325324,348,56
325334,339,56
325344,315,56
325355,363,56
325363,316,56
325375,345,56
325379,360,56
325396,318,56
325397,366,56
325413,327,56
325426,319,56
325436,355,56
325447,306,56
325447,344,56
325464,333,56
325478,308,56
325488,354,56
325497,312,56
325497,332,56
325513,348,56
325529,308,56
325540,355,56
325547,329,56
325560,344,56
325570,501,55
325580,492,55
325580,416,55
325596,276,55
325612,308,55
325613,347,55
325630,303,55
325643,322,55
325647,344,55
325663,304,55
325673,351,55
325680,326,55
325693,320,55
325704,357,55
325714,311,55
325720,350,55
325730,347,55
325744,321,55
325755,371,55
325763,336,55
325776,355,55
325784,387,55
325795,351,55
325806,406,55
325813,389,55
325826,383,55
325837,421,55
325847,359,55
325847,372,55
325864,347,55
325878,305,55
325880,343,55
325896,298,55
325909,307,55
325913,328,55
325929,282,55
325940,330,55
325947,304,55
325960,293,55
325971,336,55
325980,288,55
325992,320,55
325997,322,55
325997,291,55
326013,340,55
326031,299,55
326042,312,55
326053,337,55
326062,293,55
326074,338,55
326080,316,55
326094,304,55
326104,342,55
326114,297,55
326117,328,55
326131,329,55
326144,296,55
326156,344,55
326163,307,55
326176,317,55
326185,340,55
326197,297,55
326207,340,55
326213,321,55
326228,308,55
326238,349,55
326247,302,55
326247,333,55
326263,336,55
326279,303,55
326281,351,55
326296,313,55
326310,323,55
326320,348,55
326330,306,55
326339,351,55
326346,327,55
326360,324,55
326371,370,55
326380,320,55
326392,352,55
326398,348,55
326398,302,55
326422,349,55
326431,315,55
326442,323,55
326447,344,55
326463,299,55
326470,342,55
326480,326,55
326494,310,55
326497,354,55
326515,304,55
326525,332,55
326531,341,55
326546,315,55
326556,451,56
326564,500,56
326576,420,56
326580,300,56
326597,288,56
326607,337,56
326616,321,56
326616,307,56
326638,352,56
326647,305,56
326647,335,56
326663,343,56
326679,306,56
326682,355,56
326696,321,56
326710,330,56
326719,360,56
326729,315,56
326740,361,56
326746,353,56
326761,342,56
326771,394,56
326780,357,56
326780,392,56
326797,411,56
326812,376,56
326823,425,56
326832,382,56
326843,359,56
326847,368,56
326864,304,56
326873,334,56
326881,316,56
326895,288,56
326897,332,56
326914,289,56
326923,311,56
326932,320,56
326945,283,56
326947,329,56
326963,299,56
326976,302,56
326987,335,56
326996,290,56
327007,329,56
327017,320,56
327017,298,56
327038,345,56
327047,300,56
327047,322,56
327070,332,56
327079,294,56
327090,341,56
327097,311,56
327110,311,56
327120,345,56
327131,299,56
327132,334,56
327151,328,56
327162,303,56
327172,349,56
327179,304,56
327193,324,56
327203,340,56
327213,297,56
327223,345,56
327232,319,56
327243,316,56
327254,354,56
327264,304,56
327268,346,56
327280,345,56
327296,316,56
327305,362,56
327313,316,56
327325,323,56
327336,341,56
327346,303,56
327356,345,56
327363,321,56
327376,314,56
327387,350,56
327396,306,56
327408,339,56
327416,335,56
327428,312,56
327439,357,56
327447,320,56
327459,346,56
327464,469,57
327479,455,57
327490,403,57
327497,268,57
327497,312,57
327514,346,57
327530,301,57
327541,338,57
327546,335,57
327561,308,57
327571,357,57
327580,319,57
327593,334,57
327597,355,57
327613,317,57
327623,360,57
327633,340,57
327644,338,57
327654,376,57
327663,338,57
327674,375,57
327685,383,57
327695,364,57
327706,419,57
327714,388,57
327717,402,57
327733,419,57
327746,357,57
327757,376,57
327764,336,57
327777,310,57
327780,337,57
327797,291,57
327800,321,57
327815,322,57
327828,294,57
327839,339,57
327847,299,57
327859,312,57
327870,334,57
327880,286,57
327891,334,57
327897,315,57
327897,305,57
327914,345,57
327931,299,57
327942,328,57
327947,335,57
327947,301,57
327972,344,57
327980,312,57
327992,320,57
327996,343,57
328013,300,57
328023,344,57
328034,325,57
328045,311,57
328046,352,57
328063,308,57
328075,337,57
328080,341,57
328096,307,57
328096,355,57
328113,318,57
328126,325,57
328137,353,57
328147,311,57
328147,358,57
328163,345,57
328178,327,57
328188,366,57
328197,314,57
328208,331,57
328218,340,57
328229,303,57
328234,348,57
328246,314,57
328260,321,57
328270,348,57
328280,305,57
328291,345,57
328297,329,57
328297,314,57
328322,358,57
328330,315,57
328341,348,57
328352,447,58
328363,477,58
328369,445,58
328380,273,58
328394,308,58
328397,343,58
328413,302,58
328423,343,58
328434,331,58
328434,314,58
328455,361,58
328463,317,58
328472,342,58
328480,355,58
328496,321,58
328506,365,58
328514,336,58
328526,337,58
328537,374,58
328546,336,58
328557,381,58
328568,376,58
328578,363,58
328588,417,58
328598,379,58
328598,408,58
328619,417,58
328630,362,58
328640,386,58
328647,336,58
328660,318,58
328670,340,58
328680,290,58
328691,327,58
328697,318,58
328712,295,58
328717,338,58
328730,293,58
328742,317,58
328752,333,58
328763,291,58
328773,338,58
328781,310,58
328781,305,58
328804,341,58
328813,293,58
328825,331,58
328835,327,58
328846,302,58
328855,345,58
328863,304,58
328876,324,58
328881,340,58
328897,297,58
328897,343,58
328913,315,58
328928,310,58
328937,346,58
328947,299,58
328947,336,58
328964,330,58
328979,303,58
328989,352,58
328997,309,58
328997,325,58
329014,342,58
329029,299,58
329040,346,58
329047,320,58
329061,315,58
329072,352,58
329080,304,58
329092,340,58
329096,331,58
329112,304,58
329116,351,58
329130,307,58
329142,322,58
329152,344,58
329163,301,58
329174,350,58
329180,325,58
329193,317,58
329197,363,58
329214,316,58
329225,352,58
329235,348,58
329245,312,58
329255,349,58
329263,310,58
329276,324,58
329280,344,58
329297,301,58
329307,343,58
329317,317,58
329317,309,58
329336,348,58
329347,303,58
329359,337,58
329363,335,58
329379,305,58
329389,365,58
329397,408,57
329410,499,57
329419,455,57
329429,246,57
329440,323,57
329446,313,57
329461,301,57
329471,343,57
329480,298,57
329492,330,57
329497,334,57
329512,301,57
329514,350,57
329530,314,57
329543,325,57
329547,353,57
329564,307,57
329574,351,57
329580,338,57
329595,327,57
329605,373,57
329613,334,57
329624,372,57
329635,386,57
329646,358,57
329656,413,57
329663,376,57
329677,375,57
329687,382,57
329697,314,57
329697,341,57
329714,318,57
329728,294,57
329738,336,57
329746,289,57
329759,319,57
329769,327,57
329779,290,57
329790,336,57
329797,301,57
329797,304,57
329813,332,57
329829,285,57
329841,327,57
329847,315,57
329861,296,57
329872,341,57
329880,296,57
329880,321,57
329896,332,57
329912,293,57
329922,344,57
329931,309,57
329943,314,57
329954,344,57
329964,294,57
329974,337,57
329984,323,57
329995,306,57
329997,349,57
330014,304,57
330026,329,57
330035,338,57
330046,300,57
330056,348,57
330066,317,57
330077,319,57
330080,349,57
330096,301,57
330108,342,57
330114,328,57
330128,306,57
330138,354,57
330147,310,57
330159,332,57
330169,345,57
330179,305,57
330190,354,57
330196,323,57
330210,323,57
330221,360,57
330230,311,57
330241,348,57
330247,339,57
330247,316,57
330272,361,57
330281,318,57
330293,337,57
330297,354,57
330312,312,57
330320,365,57
330330,336,57
330344,331,57
330347,366,57
330363,315,57
330374,356,57
330380,347,57
330395,326,57
330406,380,57
330414,335,57
330425,353,57
330435,365,57
330446,316,57
330457,360,57
330466,334,57
330477,328,57
330480,362,57
330496,315,57
330496,351,57
330513,346,57
330522,317,57
330539,363,57
330546,324,57
330560,342,57
330570,357,57
330580,322,57
330590,415,56
330597,520,56
330611,506,56
330621,380,56
330630,269,56
330641,347,56
330646,338,56
330662,309,56
330672,359,56
330680,319,56
330693,333,56
330703,358,56
330713,315,56
330723,360,56
330730,340,56
330737,331,56
330754,372,56
330763,326,56
330776,364,56
330785,368,56
330795,345,56
330805,398,56
330814,367,56
330826,385,56
330837,419,56
330846,380,56
330847,429,56
330863,406,56
330878,380,56
330880,395,56
330896,326,56
330908,344,56
330914,336,56
330922,299,56
330937,344,56
330947,302,56
330947,315,56
330970,341,56
330980,293,56
330991,337,56
330996,317,56
331012,303,56
331021,344,56
331031,297,56
331038,324,56
331052,327,56
331063,294,56
331073,343,56
331080,307,56
331094,315,56
331103,344,56
331114,296,56
331124,338,56
331131,322,56
331145,302,56
331155,348,56
331163,300,56
331175,327,56
331185,334,56
331196,296,56
331207,347,56
331214,313,56
331214,316,56
331231,345,56
331247,297,56
331258,340,56
331263,325,56
331278,306,56
331288,350,56
331297,305,56
331309,331,56
331319,340,56
331329,302,56
331340,349,56
331348,313,56
331348,318,56
331364,347,56
331381,303,56
331391,344,56
331397,330,56
331411,309,56
331421,354,56
331430,308,56
331442,333,56
331447,342,56
331463,303,56
331472,352,56
331480,316,56
331480,318,56
331497,349,56
331513,302,56
331522,340,56
331531,327,56
331538,308,56
331556,355,56
331564,305,56
331573,337,56
331581,350,56
331596,311,56
331597,359,56
331614,318,56
331628,310,56
331637,344,56
331648,297,56
331648,335,56
331664,323,56
331679,296,56
331680,344,56
331698,301,56
331709,323,56
331719,336,56
331729,298,56
331740,343,56
331747,317,56
331761,343,56
331768,501,55
331780,491,55
331791,401,55
331797,262,55
331812,295,55
331821,335,55
331830,292,55
331843,312,55
331853,330,55
331863,289,55
331874,338,55
331880,309,55
331894,308,55
331897,346,55
331914,300,55
331925,340,55
331931,337,55
331945,315,55
331955,365,55
331963,329,55
331976,352,55
331986,377,55
331997,342,55
332008,399,55
332017,379,55
332027,379,55
332038,418,55
332048,360,55
332059,372,55
332064,346,55
332079,302,55
332081,337,55
332097,290,55
332109,305,55
332120,322,55
332130,277,55
332140,323,55
332147,299,55
332160,290,55
332170,327,55
332180,280,55
332192,315,55
332197,315,55
332197,287,55
332222,335,55
332231,293,55
332239,310,55
332253,328,55
332264,286,55
332274,331,55
332280,311,55
332294,302,55
332304,341,55
332313,294,55
332325,326,55
332330,325,55
332346,294,55
332356,341,55
332364,302,55
332366,313,55
332387,337,55
332396,289,55
332397,336,55
332414,312,55
332428,300,55
332438,340,55
332447,296,55
332458,325,55
332469,328,55
332479,298,55
332490,345,55
332496,307,55
332509,317,55
332520,339,55
332530,294,55
332541,340,55
332547,319,55
332561,309,55
332571,348,55
332580,302,55
332592,338,55
332597,348,55
332613,312,55
332623,359,55
332631,321,55
332644,317,55
332653,343,55
332664,301,55
332674,338,55
332681,323,55
332681,305,55
332705,346,55
332714,302,55
332725,327,55
332731,337,55
332746,301,55
332756,350,55
332764,314,55
332777,327,55
332787,389,55
332797,464,55
332808,482,55
332815,334,55
332828,260,55
332837,342,55
332847,293,55
332858,324,55
332869,333,55
332880,300,55
332889,347,55
332898,314,55
332910,320,55
332918,349,55
332930,304,55
332941,345,55
332947,336,55
332962,321,55
332972,367,55
332980,329,55
332992,358,55
332997,378,55
333013,347,55
333024,403,55
333030,379,55
333040,388,55
333054,422,55
333064,371,55
333075,393,55
333080,356,55
333096,312,55
333105,345,55
333114,296,55
333126,311,55
333131,323,55
333146,285,55
333157,329,55
333163,300,55
333177,297,55
333188,329,55
333197,284,55
333208,323,55
333214,316,55
333228,293,55
333239,340,55
333247,299,55
333259,318,55
333270,332,55
333280,294,55
333290,342,55
333297,313,55
333297,311,55
333314,344,55
333331,296,55
333342,329,55
333347,326,55
333362,301,55
333372,346,55
333380,308,55
333380,325,55
333397,339,55
333413,297,55
333424,344,55
333431,317,55
333444,313,55
333449,348,55
333464,302,55
333475,340,55
333480,334,55
333496,311,55
333505,364,55
333516,319,55
333516,335,55
333531,346,55
333547,298,55
333548,346,55
333565,321,55
333578,312,55
333588,349,55
333597,302,55
333608,337,55
333613,332,55
333629,307,55
333639,355,55
333648,315,55
333659,327,55
333670,354,55
333680,319,55
333681,463,57
333697,482,57
333712,380,57
333714,299,57
333730,304,57
333741,333,57
333747,336,57
333762,306,57
333769,353,57
333781,316,57
333793,331,57
333803,352,57
333814,312,57
333821,360,57
333831,335,57
333845,325,57
333854,364,57
333864,324,57
333875,360,57
333882,366,57
333882,343,57
333897,400,57
333914,371,57
333923,390,57
333930,423,57
333947,381,57
333958,420,57
333964,384,57
333978,344,57
333989,363,57
333998,304,57
333998,322,57
334014,319,57
334029,288,57
334030,334,57
334048,297,57
334060,302,57
334070,327,57
334080,284,57
334091,324,57
334097,308,57
334111,292,57
334119,336,57
334131,294,57
334142,320,57
334148,328,57
334163,298,57
334173,345,57
334180,309,57
334193,316,57
334203,341,57
334213,293,57
334225,333,57
334230,321,57
334245,309,57
334248,346,57
334264,303,57
334276,329,57
334281,337,57
334297,300,57
334298,349,57
334314,317,57
334327,321,57
334331,356,57
334347,313,57
334348,351,57
334364,337,57
334374,318,57
334389,348,57
334397,307,57
334409,329,57
334414,340,57
334430,301,57
334430,345,57
334447,313,57
334460,315,57
334471,341,57
334480,299,57
334492,338,57
334497,328,57
334512,306,57
334517,357,57
334531,367,57
334543,493,59
334548,432,59
334563,277,59
334573,321,59
334581,314,59
334581,312,59
334604,346,59
334614,300,59
334623,342,59
334631,333,59
334643,314,59
334655,358,59
334664,316,59
334676,338,59
334680,348,59
334697,315,59
334698,365,59
334714,340,59
334727,345,59
334737,384,59
334747,344,59
334747,388,59
334764,391,59
334778,376,59
334781,427,59
334797,386,59
334810,390,59
334819,379,59
334830,316,59
334840,343,59
334848,306,59
334860,298,59
334871,330,59
334881,284,59
334892,318,59
334897,311,59
334912,287,59
334916,335,59
334931,295,59
334931,311,59
334949,331,59
334949,290,59
334973,336,59
334980,309,59
334985,304,59
335005,342,59
335014,300,59
335025,331,59
335031,328,59
335046,299,59
335055,347,59
335065,309,59
335070,323,59
335084,342,59
335096,298,59
335108,343,59
335114,319,59
335127,311,59
335138,351,59
335147,304,59
335147,334,59
335164,334,59
335179,304,59
335182,350,59
335196,312,59
335210,327,59
335219,348,59
335231,307,59
335241,350,59
335247,325,59
335261,324,59
335264,363,59
335280,318,59
335292,350,59
335298,340,59
335298,301,59
335314,351,59
335330,315,59
335344,324,59
335347,345,59
335364,300,59
335374,344,59
335381,324,59
335395,313,59
335405,354,59
335413,306,59
335425,336,59
335431,342,59
335446,321,59
335456,466,60
335464,488,60
335467,420,60
335481,294,60
335497,290,60
335508,338,60
335515,320,60
335527,306,60
335531,350,60
335548,306,60
335560,335,60
335564,343,60
335579,310,60
335590,359,60
335597,325,60
335597,332,60
335614,359,60
335631,316,60
335631,361,60
335647,352,60
335661,343,60
335664,391,60
335680,352,60
335693,387,60
335697,402,60
335712,369,60
335723,414,60
335731,365,60
335731,348,60
335754,357,60
335764,299,60
335772,331,60
335780,311,60
335795,292,60
335798,332,60
335813,287,60
335821,310,60
335832,319,60
335846,285,60
335849,336,60
335863,303,60
335877,304,60
335887,334,60
335897,286,60
335908,325,60
335916,314,60
335929,295,60
335939,341,60
335947,299,60
335959,327,60
335965,335,60
335965,297,60
335991,346,60
335997,313,60
336010,312,60
336021,343,60
336031,296,60
336041,334,60
336047,322,60
336062,300,60
336073,348,60
336081,304,60
336092,324,60
336097,338,60
336113,299,60
336114,346,60
336131,317,60
336144,315,60
336154,352,60
336164,302,60
336174,339,60
336181,331,60
336196,304,60
336198,350,60
336214,310,60
336226,330,60
336231,345,60
336247,302,60
336256,350,60
336264,322,60
336277,317,60
336288,355,60
336297,309,60
336308,345,60
336318,338,60
336329,320,60
336331,366,60
336348,322,60
336359,336,60
336364,350,60
336380,299,60
336391,348,60
336397,323,60
336397,313,60
336415,352,60
336431,304,60
336442,336,60
336447,336,60
336462,307,60
336472,355,60
336481,314,60
336493,329,60
336503,350,60
336514,320,60
336524,467,60
336530,502,60
336544,416,60
336547,292,60
336564,292,60
336575,332,60
336581,331,60
336596,301,60
336606,348,60
336616,308,60
336626,323,60
336631,348,60
336646,304,60
336658,350,60
336663,332,60
336678,321,60
336688,362,60
336697,317,60
336700,354,60
336715,359,60
336724,332,60
336732,388,60
336747,358,60
336760,377,60
336764,408,60
336780,370,60
336791,414,60
336797,382,60
336811,347,60
336820,369,60
336830,307,60
336842,326,60
336853,326,60
336863,290,60
336873,336,60
336881,297,60
336894,305,60
336904,332,60
336913,286,60
336914,329,60
336930,310,60
336945,295,60
336947,336,60
336964,288,60
336976,316,60
336981,324,60
336996,291,60
337006,337,60
337014,303,60
337027,309,60
337037,337,60
337047,291,60
337058,334,60
337064,321,60
337078,304,60
337082,347,60
337098,304,60
337098,330,60
337119,337,60
337129,302,60
337140,348,60
337147,314,60
337160,319,60
337164,349,60
337181,303,60
337192,343,60
337198,328,60
337212,307,60
337222,351,60
337230,307,60
337242,327,60
337248,337,60
337248,301,60
337274,349,60
337281,317,60
337294,319,60
337304,349,60
337314,304,60
337325,343,60
337331,333,60
337346,308,60
337356,358,60
337364,313,60
337375,336,60
337386,348,60
337397,310,60
337407,358,60
337416,325,60
337427,322,60
337438,354,60
337447,307,60
337458,347,60
337464,338,60
337479,313,60
337481,359,60
337497,316,60
337509,337,60
337520,351,60
337530,310,60
337540,365,60
337547,336,60
337561,333,60
337567,365,60
337581,309,60
337592,342,60
337598,336,60
337598,309,60
337622,353,60
337631,309,60
337643,327,60
337647,344,60
337663,300,60
337673,348,60
337681,322,60
337694,314,60
337704,352,60
337713,309,60
337725,373,60
337731,491,58
337731,492,58
337748,412,58
337764,250,58
337774,321,58
337786,334,58
337797,294,58
337807,341,58
337814,316,58
337827,311,58
337831,348,58
337848,300,58
337849,336,58
337865,336,58
337879,309,58
337881,360,58
337897,322,58
337909,339,58
337920,364,58
337930,324,58
337931,374,58
337948,360,58
337962,359,58
337965,406,58
337982,367,58
337982,402,58
337999,402,58
338013,363,58
338015,388,58
338031,327,58
338043,323,58
338054,337,58
338064,287,58
338075,333,58
338080,308,58
338095,298,58
338098,334,58
338115,286,58
338124,317,58
338130,320,58
338146,286,58
338156,337,58
338164,298,58
338172,308,58
338187,333,58
338197,287,58
338208,333,58
338214,315,58
338227,299,58
338239,342,58
338248,297,58
338259,327,58
338268,328,58
338280,293,58
338289,344,58
338297,305,58
338311,313,58
338320,342,58
338330,294,58
338341,338,58
338348,322,58
338362,308,58
338372,350,58
338382,305,58
338393,333,58
338403,337,58
338413,300,58
338423,345,58
338431,312,58
338431,320,58
338454,348,58
338464,301,58
338473,343,58
338481,329,58
338494,311,58
338505,351,58
338514,304,58
338525,330,58
338530,338,58
338546,301,58
338548,352,58
338565,317,58
338577,321,58
338581,352,58
338598,304,58
338607,341,58
338614,329,58
338629,309,58
338638,354,58
338648,309,58
338659,332,58
338666,344,58
338666,303,58
338690,357,58
338698,320,58
338711,333,58
338720,367,58
338731,316,58
338741,355,58
338748,339,58
338762,308,58
338772,356,58
338781,311,58
338792,332,58
338798,343,58
338813,303,58
338823,352,58
338831,320,58
338844,318,58
338854,352,58
338865,304,58
338874,344,58
338881,337,58
338895,326,58
338899,477,56
338914,513,56
338918,443,56
338931,274,56
338946,290,56
338949,341,56
338965,311,56
338978,309,56
338982,343,56
338998,300,56
339008,338,56
339017,332,56
339029,309,56
339039,358,56
339049,316,56
339049,336,56
339066,354,56
339074,314,56
339082,365,56
339098,342,56
339110,342,56
339121,387,56
339132,348,56
339142,394,56
339149,399,56
339163,377,56
339173,428,56
339181,378,56
339181,373,56
339198,369,56
339213,307,56
339224,340,56
339232,308,56
339244,297,56
339249,333,56
339265,284,56
339275,320,56
339282,316,56
339296,284,56
339298,337,56
339315,294,56
339324,309,56
339337,332,56
339347,286,56
339358,335,56
339365,312,56
339378,302,56
339388,343,56
339398,296,56
339408,329,56
339414,328,56
339429,297,56
339431,345,56
339449,306,56
339460,318,56
339470,339,56
339480,294,56
339491,340,56
339498,321,56
339511,307,56
339520,347,56
339531,302,56
339541,333,56
339550,333,56
339563,300,56
339565,351,56
339582,313,56
339594,321,56
339598,347,56
339615,300,56
339624,342,56
339631,324,56
339645,311,56
339655,351,56
339665,308,56
339676,335,56
339681,340,56
339696,306,56
339706,353,56
339715,316,56
339727,323,56
339737,350,56
339748,303,56
339750,347,56
339765,331,56
339775,316,56
339788,362,56
339798,313,56
339809,342,56
339815,355,56
339829,317,56
339840,367,56
339850,328,56
339860,323,56
339865,349,56
339881,305,56
339891,346,56
339898,327,56
339911,309,56
339922,351,56
339932,308,56
339932,332,56
339950,340,56
339963,303,56
339972,354,56
339981,317,56
339993,326,56
340004,430,56
340014,500,56
340021,477,56
340031,291,56
340045,285,56
340055,351,56
340065,305,56
340076,329,56
340082,341,56
340096,305,56
340099,355,56
340115,322,56
340128,325,56
340137,360,56
340148,314,56
340158,353,56
340165,346,56
340178,325,56
340181,374,56
340198,331,56
340209,360,56
340214,377,56
340230,348,56
340240,405,56
340250,383,56
340260,388,56
340271,426,56
340281,370,56
340282,391,56
340298,360,56
340312,315,56
340315,351,56
340331,298,56
340342,311,56
340350,325,56
340363,282,56
340373,329,56
340382,303,56
340394,300,56
340398,334,56
340415,288,56
340425,323,56
340431,318,56
340445,292,56
340450,338,56
340465,296,56
340476,317,56
340481,336,56
340497,298,56
340507,341,56
340515,314,56
340527,305,56
340538,343,56
340548,296,56
340559,333,56
340566,325,56
340579,300,56
340581,347,56
340598,306,56
340610,323,56
340616,342,56
340630,298,56
340640,342,56
340651,320,56
340661,314,56
340670,350,56
340682,303,56
340692,338,56
340699,337,56
340699,308,56
340716,353,56
340732,312,56
340743,325,56
340751,345,56
340751,303,56
340774,347,56
340782,325,56
340795,316,56
340805,356,56
340815,318,56
340822,347,56
340832,350,56
340832,313,56
340851,354,56
340864,311,56
340877,324,56
340882,347,56
340897,302,56
340898,345,56
340915,323,56
340924,314,56
340931,353,56
340948,305,56
340959,334,56
340965,338,56
340972,304,56
340990,360,56
340998,351,56
341010,477,57
341015,482,57
341031,326,57
341041,301,57
341049,326,57
341062,304,57
341072,348,57
341081,305,57
341093,336,57
341099,343,57
341099,309,57
341115,358,57
341131,326,57
341131,335,57
341152,362,57
341164,316,57
341174,362,57
341182,351,57
341194,338,57
341205,383,57
341216,344,57
341217,380,57
341232,395,57
341247,371,57
341256,424,57
341265,393,57
341274,394,57
341281,403,57
341297,332,57
341300,356,57
341315,325,57
341329,296,57
341338,337,57
341349,294,57
341359,315,57
341364,324,57
341380,287,57
341390,333,57
341398,300,57
341410,304,57
341418,334,57
341431,288,57
341432,328,57
341448,319,57
341461,296,57
341468,341,57
341482,299,57
341492,323,57
341498,335,57
341513,297,57
341524,342,57
341532,311,57
341544,311,57
341552,341,57
341564,296,57
341575,334,57
341582,325,57
341596,305,57
341599,347,57
341615,306,57
341626,325,57
341633,342,57
341633,302,57
341652,348,57
341666,319,57
341676,318,57
341682,353,57
341698,308,57
341698,345,57
341715,344,57
341728,322,57
341739,364,57
341748,326,57
341760,334,57
341765,340,57
341780,304,57
341790,349,57
341798,321,57
341811,316,57
341821,346,57
341832,301,57
341842,336,57
341848,335,57
341861,307,57
341872,353,57
341882,314,57
341893,335,57
341898,360,57
341913,404,59
341916,510,59
341931,391,59
341944,263,59
341955,342,59
341965,296,59
341976,334,59
341982,334,59
341996,305,59
342006,353,59
342015,317,59
342027,331,59
342032,354,59
342047,313,59
342057,356,59
342065,339,59
342065,331,59
342082,372,59
342098,330,59
342098,367,59
342115,370,59
342129,352,59
342139,405,59
342148,377,59
342159,398,59
342170,425,59
342180,378,59
342190,405,59
342198,362,59
342211,329,59
342221,351,59
342231,299,59
342231,322,59
342249,321,59
342262,288,59
342273,334,59
342283,297,59
342294,307,59
342298,331,59
342314,289,59
342324,328,59
342332,309,59
342345,297,59
342353,338,59
342365,295,59
342376,323,59
342382,329,59
342382,295,59
342406,345,59
342415,310,59
342427,316,59
342432,339,59
342448,298,59
342458,336,59
342465,321,59
342478,306,59
342483,347,59
342499,305,59
342509,332,59
342515,338,59
342530,307,59
342533,352,59
342548,319,59
342561,324,59
342566,352,59
342575,304,59
342583,350,59
342599,341,59
342599,320,59
342622,362,59
342632,314,59
342643,330,59
342653,340,59
342663,305,59
342671,350,59
342682,317,59
342693,319,59
342704,349,59
342714,305,59
342724,344,59
342732,334,59
342746,314,59
342755,359,59
342765,315,59
342766,345,59
342782,436,60
342796,479,60
342799,436,60
342815,277,60
342825,306,60
342837,343,60
342847,304,60
342858,340,60
342868,332,60
342879,309,60
342882,358,60
342898,317,60
342909,337,60
342915,355,60
342930,316,60
342940,362,60
342948,338,60
342961,336,60
342970,372,60
342981,331,60
342991,374,60
342999,375,60
343012,360,60
343022,415,60
343032,380,60
343043,402,60
343048,417,60
343054,364,60
343074,381,60
343082,335,60
343094,317,60
343104,340,60
343115,285,60
343124,321,60
343132,316,60
343146,285,60
343156,331,60
343165,294,60
343176,306,60
343182,327,60
343182,286,60
343199,332,60
343215,309,60
343227,300,60
343238,337,60
343247,294,60
343259,324,60
343265,322,60
343271,296,60
343282,341,60
343299,302,60
343310,313,60
343315,335,60
343331,297,60
343332,338,60
343350,319,60
343361,306,60
343365,346,60
343381,301,60
343392,332,60
343399,331,60
343412,299,60
343423,347,60
343432,310,60
343443,321,60
343453,344,60
343463,299,60
343466,343,60
343482,325,60
343482,312,60
343505,349,60
343514,307,60
343524,342,60
343531,344,60
343547,312,60
343556,351,60
343565,305,60
343576,312,60
343587,340,60
343597,294,60
343607,335,60
343618,318,60
343628,300,60
343632,343,60
343649,301,60
343659,327,60
343668,335,60
343680,301,60
343682,346,60
343698,323,60
343709,400,60
343717,516,59
343717,410,59
343741,307,59
343749,301,59
343754,301,59
343766,344,59
343782,299,59
343792,328,59
343798,335,59
343798,300,59
343823,348,59
343832,319,59
343844,322,59
343854,355,59
343864,309,59
343874,350,59
343882,336,59
343895,321,59
343899,369,59
343915,329,59
343926,362,59
343932,381,59
343932,351,59
343955,407,59
343965,382,59
343974,383,59
343982,404,59
343997,340,59
344008,356,59
344016,330,59
344021,296,59
344039,335,59
344049,289,59
344055,312,59
344066,324,59
344075,284,59
344090,331,59
344099,301,59
344099,298,59
344115,331,59
344130,283,59
344132,322,59
344149,313,59
344161,289,59
344171,334,59
344182,292,59
344182,314,59
344199,328,59
344199,289,59
344224,337,59
344232,310,59
344244,307,59
344254,344,59
344265,297,59
344272,332,59
344282,327,59
344295,300,59
344298,344,59
344316,304,59
344325,321,59
344332,338,59
344346,296,59
344357,343,59
344365,320,59
344377,314,59
344382,349,59
344398,302,59
344399,337,59
344415,333,59
344429,304,59
344439,351,59
344448,311,59
344460,324,59
344466,345,59
344480,300,59
344490,344,59
344499,318,59
344499,311,59
344521,349,59
344531,303,59
344533,336,59
344549,335,59
344562,306,59
344566,356,59
344582,316,59
344593,334,59
344598,361,59
344613,315,59
344624,360,59
344632,336,59
344644,316,59
344654,353,59
344665,308,59
344675,339,59
344682,340,59
344696,305,59
344700,354,59
344716,316,59
344726,328,59
344737,348,59
344747,303,59
344757,350,59
344766,329,59
344773,324,59
344788,401,58
344798,471,58
344808,485,58
344816,356,58
344829,255,58
344838,346,58
344849,306,58
344856,313,58
344865,341,58
344880,298,58
344891,344,58
344899,330,58
344911,316,58
344921,360,58
344932,316,58
344942,343,58
344949,349,58
344963,315,58
344970,368,58
344983,338,58
344994,348,58
345001,382,58
345013,342,58
345024,393,58
345032,385,58
345045,371,58
345055,419,58
345065,369,58
345075,381,58
345082,370,58
345082,315,58
345099,351,58
345115,311,58
345127,310,58
345132,339,58
345132,291,58
345158,333,58
345166,323,58
345178,302,58
345182,346,58
345198,303,58
345198,324,58
345216,333,58
345229,294,58
345240,341,58
345249,310,58
345256,311,58
345265,344,58
345281,296,58
345291,333,58
345298,327,58
345311,304,58
345322,346,58
345332,305,58
345342,327,58
345349,339,58
345357,300,58
345373,345,58
345382,315,58
345394,312,58
345399,349,58
345415,303,58
345424,339,58
345433,330,58
345433,304,58
345455,352,58
345465,313,58
345476,328,58
345483,343,58
345483,304,58
345506,348,58
345515,319,58
345525,316,58
345537,351,58
345548,302,58
345558,337,58
345565,334,58
345579,308,58
345583,356,58
345598,313,58
345609,331,58
345615,349,58
345630,307,58
345640,350,58
345648,326,58
345660,317,58
345666,355,58
345681,312,58
345691,343,58
345699,342,58
345712,312,58
345719,363,58
345732,320,58
345742,338,58
345748,364,58
345758,318,58
345768,367,58
345782,337,58
345795,320,58
345799,357,58
345814,309,58
345824,341,58
345832,338,58
345832,310,58
345856,355,58
345866,316,58
345876,328,58
345884,351,58
345897,306,58
345899,350,58
345915,327,58
345928,323,58
345933,434,57
345949,506,57
345958,499,57
345967,313,57
345967,279,57
345983,354,57
345999,311,57
345999,319,57
346015,344,57
346030,301,57
346040,347,57
346049,331,57
346061,315,57
346071,356,57
346081,310,57
346092,342,57
346098,347,57
346112,317,57
346118,367,57
346132,333,57
346132,347,57
346149,380,57
346158,344,57
346174,397,57
346182,388,57
346182,377,57
346198,423,57
346214,375,57
346224,386,57
346232,369,57
346245,314,57
346256,349,57
346265,305,57
346276,305,57
346282,332,57
346297,285,57
346307,326,57
346318,308,57
346318,292,57
346338,336,57
346347,292,57
346358,318,57
346366,325,57
346379,288,57
346389,336,57
346399,302,57
346399,304,57
346416,336,57
346430,290,57
346432,330,57
346449,318,57
346462,298,57
346466,345,57
346482,300,57
346492,319,57
346498,331,57
346510,293,57
346523,341,57
346532,312,57
346543,311,57
346549,342,57
346564,296,57
346574,334,57
346581,325,57
346595,302,57
346605,352,57
346615,309,57
346618,331,57
346633,342,57
346645,299,57
346656,345,57
346665,316,57
346677,314,57
346682,346,57
346698,300,57
346707,338,57
346715,331,57
346721,305,57
346733,352,57
346749,309,57
346759,326,57
346765,345,57
346775,302,57
346790,348,57
346798,318,57
346811,313,57
346815,353,57
346830,305,57
346840,341,57
346848,343,57
346862,318,57
346871,365,57
346882,323,57
346892,328,57
346899,345,57
346899,302,57
346923,347,57
346931,321,57
346944,313,57
346954,350,57
346964,303,57
346971,336,57
346982,334,57
346982,306,57
346999,355,57
347016,314,57
347026,332,57
347032,379,57
347047,461,57
347057,544,57
347065,392,57
347077,251,57
347082,352,57
347098,300,57
347099,333,57
347116,335,57
347125,304,57
347132,352,57
347149,314,57
347159,326,57
347165,351,57
347180,308,57
347183,354,57
347199,333,57
347211,326,57
347221,369,57
347231,327,57
347242,360,57
347250,368,57
347262,343,57
347271,400,57
347282,373,57
347293,389,57
347299,418,57
347313,372,57
347318,405,57
347332,363,57
347345,328,57
347349,353,57
347365,297,57
347375,319,57
347382,320,57
347382,286,57
347399,333,57
347416,299,57
347427,303,57
347433,331,57
347433,287,57
347457,332,57
347466,316,57
347475,300,57
347483,344,57
347483,296,57
347500,324,57
347516,332,57
347526,297,57
347531,342,57
347549,309,57
347560,314,57
347566,341,57
347581,296,57
347582,335,57
347599,321,57
347611,302,57
347621,347,57
347632,301,57
347642,326,57
347650,337,57
347659,296,57
347673,344,57
347682,312,57
347693,316,57
347700,347,57
347714,300,57
347723,340,57
347732,330,57
347745,308,57
347748,356,57
347765,312,57
347775,333,57
347782,345,57
347796,307,57
347799,353,57
347816,323,57
347827,326,57
347833,356,57
347847,310,57
347849,350,57
347867,340,57
347878,320,57
347882,370,57
347898,325,57
347909,344,57
347916,355,57
347929,305,57
347940,350,57
347949,318,57
347959,316,57
347970,351,57
347981,304,57
347991,341,57
347999,332,57
348012,307,57
348022,354,57
348032,314,57
348032,334,57
348048,344,57
348060,311,57
348073,416,58
348082,510,58
348094,460,58
348099,332,58
348115,270,58
348124,335,58
348132,326,58
348145,302,58
348155,349,58
348165,313,58
348175,328,58
348183,346,58
348196,306,58
348199,353,58
348216,331,58
348218,325,58
348233,366,58
348233,321,58
348258,356,58
348267,359,58
348278,336,58
348289,388,58
348298,358,58
348310,379,58
348316,409,58
348320,373,58
348339,421,58
348349,393,58
348361,362,58
348366,380,58
348376,314,58
348392,333,58
348399,322,58
348411,288,58
348415,336,58
348432,295,58
348439,309,58
348448,326,58
348463,280,58
348464,327,58
348484,307,58
348491,296,58
348504,336,58
348508,296,58
348525,325,58
348535,328,58
348541,296,58
348556,344,58
348565,308,58
348574,314,58
348586,340,58
348591,294,58
348607,339,58
348617,322,58
348624,303,58
348637,346,58
348648,302,58
348658,329,58
348668,333,58
348678,299,58
348689,345,58
348700,311,58
348707,318,58
348720,344,58
348730,297,58
348741,337,58
348750,323,58
348757,309,58
348761,352,58
348775,312,58
348791,341,58
348802,349,58
348807,311,58
348822,353,58
348833,307,58
348841,314,58
348853,343,58
348862,295,58
348873,337,58
348883,324,58
348890,302,58
348904,345,58
348915,305,58
348924,330,58
348936,339,58
348941,303,58
348956,356,58
348962,331,58
348975,428,59
348987,511,59
348990,372,59
349007,279,59
349015,323,59
349024,298,59
349038,344,59
349048,305,59
349057,326,59
349068,342,59
349079,305,59
349089,354,59
349091,325,59
349107,324,59
349121,358,59
349125,314,59
349141,355,59
349151,349,59
349158,331,59
349167,381,59
349175,345,59
349191,373,59
349202,399,59
349213,368,59
349223,417,59
349233,394,59
349241,392,59
349254,407,59
349264,337,59
349273,353,59
349284,329,59
349291,294,59
349305,334,59
349316,294,59
349324,310,59
349335,322,59
349346,281,59
349357,326,59
349367,305,59
349374,297,59
349387,331,59
349398,291,59
349407,325,59
349418,322,59
349424,294,59
349424,337,59
349449,301,59
349457,317,59
349469,334,59
349475,295,59
349490,337,59
349499,314,59
349507,303,59
349520,338,59
349524,297,59
349540,328,59
349552,327,59
349557,299,59
349572,347,59
349582,308,59
349591,323,59
349591,339,59
349613,296,59
349623,345,59
349633,323,59
349641,315,59
349653,358,59
349664,311,59
349675,345,59
349685,343,59
349691,303,59
349706,346,59
349715,308,59
349723,320,59
349735,340,59
349746,298,59
349756,341,59
349762,319,59
349775,308,59
349775,349,59
349798,304,59
349807,337,59
349818,336,59
349825,312,59
349825,379,59
349841,450,61
349857,454,61
349870,376,61
349879,252,61
349890,342,61
349901,318,61
349907,308,61
349921,349,61
349931,305,61
349940,337,61
349952,342,61
349962,311,61
349972,356,61
349974,324,61
349991,331,61
349991,361,61
350008,320,61
350024,360,61
350034,351,61
350044,340,61
350054,389,61
350065,352,61
350074,390,61
350074,405,61
350091,376,61
350091,426,61
350108,386,61
350124,371,61
350136,370,61
350147,309,61
350156,334,61
350167,312,61
350174,292,61
350187,333,61
350198,288,61
350208,310,61
350213,321,61
350224,284,61
350240,331,61
350242,299,61
350258,304,61
350266,336,61
350276,292,61
350291,330,61
350300,317,61
350308,300,61
350315,343,61
350331,304,61
350341,323,61
350352,331,61
350357,294,61
350373,341,61
350382,311,61
350391,312,61
350403,343,61
350414,297,61
350424,334,61
350434,322,61
350442,299,61
