Timestamp,ECGValue,BPM
364262,361,59
364270,386,59
364283,356,59
364294,406,59
364303,386,59
364313,380,59
364320,405,59
364334,337,59
364345,351,59
364353,332,59
364353,294,59
364370,332,59
364386,291,59
364396,308,59
364403,326,59
364412,284,59
364423,331,59
364423,306,59
364438,299,59
364453,337,59
364467,289,59
364470,322,59
364486,321,59
364498,296,59
364509,343,59
364519,301,59
364528,316,59
364536,334,59
364550,295,59
364560,339,59
364570,314,59
364580,308,59
364586,344,59
364601,300,59
364611,331,59
364621,330,59
364621,302,59
364642,346,59
364653,308,59
364662,322,59
364669,346,59
364684,303,59
364693,344,59
364703,324,59
364714,315,59
364720,355,59
364734,308,59
364745,339,59
364752,336,59
364765,306,59
364775,354,59
364786,318,59
364796,329,59
364803,351,59
364817,307,59
364820,348,59
364837,330,59
364847,321,59
364857,362,59
364868,313,59
364870,352,59
364885,356,59
364896,320,59
364909,368,59
364919,324,59
364926,323,59
364940,350,59
364944,305,59
364961,348,59
364971,328,59
364981,312,59
364991,353,59
365002,308,59
365010,335,59
365022,339,59
365028,307,59
365042,352,59
365053,318,59
365060,333,59
365073,439,60
365081,492,60
365094,479,60
365105,290,60
365113,293,60
365113,347,60
365135,301,60
365145,328,60
365156,334,60
365165,302,60
365176,351,60
365186,317,60
365193,326,60
365206,352,60
365218,307,60
365227,352,60
365227,337,60
365243,324,60
365258,369,60
365260,329,60
365278,364,60
365289,374,60
365299,348,60
365309,407,60
365318,379,60
365327,390,60
365340,419,60
365344,365,60
365360,384,60
365371,348,60
365381,313,60
365392,345,60
365401,295,60
365410,317,60
365422,324,60
365433,289,60
365443,336,60
365453,303,60
365460,308,60
365474,336,60
365484,291,60
365494,329,60
365494,316,60
365510,296,60
365525,340,60
365536,296,60
365544,318,60
365555,332,60
365561,295,60
365566,340,60
365587,307,60
365593,311,60
365608,342,60
365612,295,60
365627,336,60
365638,323,60
365643,302,60
365659,348,60
365660,305,60
365677,327,60
365689,338,60
365695,299,60
365709,349,60
365720,319,60
365727,318,60
365741,350,60
365744,305,60
365760,344,60
365771,331,60
365781,307,60
365781,354,60
365794,311,60
365811,331,60
365820,346,60
365827,308,60
365843,352,60
365853,323,60
365860,318,60
365873,355,60
365884,306,60
365894,345,60
365905,336,60
365914,312,60
365914,358,60
365935,316,60
365944,335,60
365956,352,60
365961,314,60
365976,359,60
365987,331,60
365993,329,60
366007,363,60
366018,317,60
366027,355,60
366039,344,60
366044,321,60
366059,365,60
366069,328,60
366076,344,60
366089,368,60
366099,334,60
366110,376,60
366121,351,60
366127,340,60
366141,366,60
366150,321,60
366161,355,60
366172,350,60
366182,321,60
366192,367,60
366203,328,60
366210,346,60
366222,366,60
366227,325,60
366245,371,60
366254,347,60
366261,338,60
366274,386,60
366285,423,58
366293,572,58
366305,527,58
366316,293,58
366326,352,58
366327,336,58
366344,344,58
366356,366,58
366360,324,58
366377,370,58
366387,351,58
366394,345,58
366408,380,58
366414,336,58
366426,368,58
366438,367,58
366449,344,58
366459,392,58
366470,356,58
366477,373,58
366490,398,58
366494,364,58
366510,417,58
366520,402,58
366527,401,58
366541,448,58
366543,401,58
366561,432,58
366572,413,58
366581,357,58
366592,385,58
366603,336,58
366610,338,58
366623,354,58
366628,309,58
366643,353,58
366643,332,58
366661,320,58
366674,356,58
366682,312,58
366693,343,58
366706,345,58
366716,312,58
366726,360,58
366736,324,58
366743,335,58
366757,356,58
366767,310,58
366777,353,58
366782,333,58
366793,321,58
366808,360,58
366818,313,58
366827,342,58
366838,344,58
366849,313,58
366860,359,58
366870,319,58
366877,330,58
366882,353,58
366893,308,58
366910,351,58
366920,332,58
366926,319,58
366942,361,58
366951,313,58
366961,341,58
366966,344,58
366982,310,58
366993,352,58
366994,318,58
367011,323,58
367024,349,58
367033,302,58
367043,347,58
367054,331,58
367060,311,58
367067,352,58
367085,309,58
367093,335,58
367106,340,58
367110,304,58
367126,351,58
367136,315,58
367143,318,58
367157,346,58
367165,298,58
367177,343,58
367188,327,58
367194,311,58
367208,352,58
367219,308,58
367227,333,58
367240,340,58
367250,307,58
367260,350,58
367270,315,58
367278,319,58
367290,348,58
367301,301,58
367311,345,58
367322,337,58
367331,317,58
367342,358,58
367343,312,58
367360,326,58
367373,332,58
367383,296,58
367394,342,58
367404,309,58
367413,309,58
367413,339,58
367434,294,58
367444,333,58
367455,324,58
367461,303,58
367476,347,58
367486,301,58
367494,325,58
367506,407,57
367515,502,57
367527,534,57
367537,298,57
367543,269,57
367558,337,57
367568,283,57
367578,323,57
367588,312,57
367595,290,57
367609,335,57
367619,295,57
367627,315,57
367640,330,57
367644,292,57
367660,341,57
367671,313,57
367677,311,57
367683,347,57
367694,306,57
367710,347,57
367722,347,57
367728,334,57
367728,390,57
367753,354,57
367761,383,57
367770,400,57
367783,358,57
367794,389,57
367794,337,57
367810,312,57
367824,330,57
367835,275,57
367843,306,57
367855,297,57
367865,273,57
367876,314,57
367883,274,57
367893,291,57
367893,308,57
367911,266,57
367926,313,57
367937,288,57
367943,280,57
367957,318,57
367968,273,57
367978,310,57
367989,305,57
367993,278,57
368010,323,57
368013,285,57
368028,299,57
368040,315,57
368044,274,57
368060,319,57
368071,291,57
368076,284,57
368091,323,57
368102,280,57
368110,316,57
368114,312,57
368132,285,57
368142,331,57
368152,291,57
368160,306,57
368173,325,57
368184,283,57
368194,328,57
368194,306,57
368210,298,57
368226,336,57
368235,290,57
368243,324,57
368255,323,57
368261,291,57
368266,339,57
368287,301,57
368294,314,57
368294,336,57
368317,291,57
368327,337,57
368338,314,57
368343,303,57
368358,340,57
368369,295,57
368377,324,57
368384,325,57
368399,297,57
368410,343,57
368419,311,57
368427,328,57
368441,350,57
368450,307,57
368460,343,57
368471,313,57
368477,301,57
368491,344,57
368501,296,57
368511,323,57
368523,324,57
368527,293,57
368543,339,57
368553,302,57
368560,312,57
368573,336,57
368584,293,57
368594,334,57
368605,323,57
368614,402,56
368625,553,56
368636,444,56
368644,272,56
368656,309,56
368666,293,56
368676,335,56
368687,302,56
368694,311,56
368707,333,56
368718,293,56
368728,337,56
368729,321,56
368745,305,56
368759,351,56
368760,308,56
368779,338,56
368789,344,56
368794,314,56
368809,365,56
368820,334,56
368827,348,56
368841,382,56
368851,348,56
368860,398,56
368872,389,56
368878,375,56
368884,410,56
368895,344,56
368911,348,56
368922,338,56
368928,290,56
368943,328,56
368953,291,56
368964,293,56
368974,322,56
368984,277,56
368995,318,56
368995,302,56
369010,282,56
369025,324,56
369027,283,56
369043,307,56
369043,320,56
369061,284,56
369077,332,56
369086,302,56
369094,304,56
369094,336,56
369118,290,56
369128,330,56
369139,315,56
369144,293,56
369144,339,56
369169,296,56
369177,319,56
369184,335,56
369194,294,56
369211,341,56
369220,310,56
369227,312,56
369241,342,56
369244,296,56
369260,336,56
369272,327,56
369277,307,56
369292,352,56
369295,310,56
369312,328,56
369324,341,56
369334,302,56
369344,348,56
369354,317,56
369361,314,56
369374,349,56
369385,304,56
369394,344,56
369405,334,56
369416,317,56
369426,364,56
369436,320,56
369443,342,56
369457,348,56
369467,300,56
369477,345,56
369488,320,56
369494,317,56
369494,350,56
369518,303,56
369526,339,56
369539,333,56
369544,308,56
369560,352,56
369561,311,56
369578,332,56
369585,350,56
369594,317,56
369611,451,57
369622,507,57
369627,419,57
369627,297,57
369651,295,57
369660,335,57
369672,334,57
369677,306,57
369685,352,57
369703,314,57
369711,331,57
369724,348,57
369733,310,57
369743,357,57
369754,330,57
369762,326,57
369775,365,57
369785,322,57
369794,360,57
369805,361,57
369816,339,57
369826,395,57
369837,363,57
369844,389,57
369857,417,57
369868,379,57
369877,424,57
369887,392,57
369894,359,57
369908,376,57
369911,311,57
369927,331,57
369937,321,57
369948,288,57
369960,334,57
369970,298,57
369979,310,57
369991,329,57
370001,287,57
370010,332,57
370022,311,57
370027,298,57
370042,337,57
370044,295,57
370060,327,57
370064,328,57
370078,299,57
370094,346,57
370103,311,57
370110,316,57
370124,340,57
370135,295,57
370144,337,57
370144,318,57
370160,306,57
370175,347,57
370185,302,57
370193,333,57
370206,336,57
370211,304,57
370227,348,57
370227,316,57
370244,320,57
370257,345,57
370268,304,57
370277,345,57
370289,332,57
370294,314,57
370294,360,57
370319,319,57
370328,346,57
370328,351,57
370344,308,57
370360,347,57
370370,316,57
370377,322,57
370386,347,57
370394,304,57
370410,346,57
370422,330,57
370427,311,57
370442,355,57
370444,311,57
370461,338,57
370470,344,57
370483,316,57
370493,380,57
370495,454,58
370511,472,58
370525,398,58
370527,254,58
370544,344,58
370555,325,58
370561,311,58
370568,350,58
370586,311,58
370593,332,58
370607,344,58
370617,311,58
370627,360,58
370627,326,58
370644,332,58
370644,360,58
370661,320,58
370678,360,58
370689,354,58
370699,342,58
370709,391,58
370720,358,58
370727,389,58
370740,409,58
370751,379,58
370761,429,58
370770,395,58
370777,373,58
370791,380,58
370794,313,58
370810,339,58
370822,319,58
370827,295,58
370843,338,58
370844,296,58
370860,311,58
370873,326,58
370878,284,58
370894,330,58
370904,307,58
370911,306,58
370924,338,58
370935,294,58
370943,331,58
370955,320,58
370966,296,58
370976,340,58
370986,298,58
370994,316,58
371007,334,58
371017,293,58
371027,342,58
371028,311,58
371044,310,58
371044,341,58
371068,300,58
371077,334,58
371088,328,58
371099,300,58
371109,347,58
371119,307,58
371127,325,58
371140,343,58
371143,306,58
371161,349,58
371171,322,58
371177,323,58
371191,362,58
371202,318,58
371210,346,58
371223,335,58
371229,301,58
371243,348,58
371253,308,58
371261,319,58
371274,338,58
371277,298,58
371295,344,58
371305,323,58
371311,313,58
371325,351,58
371336,306,58
371345,341,58
371356,344,58
371364,335,58
371376,488,59
371377,457,59
371395,371,59
371407,297,59
371415,301,59
371427,340,59
371438,324,59
371444,312,59
371458,354,59
371467,308,59
371478,341,59
371490,345,59
371494,315,59
371510,361,59
371520,326,59
371527,340,59
371527,364,59
371543,325,59
371561,372,59
371569,358,59
371578,354,59
371592,401,59
371594,367,59
371611,404,59
371618,415,59
371633,388,59
371643,427,59
371645,372,59
371661,354,59
371674,356,59
371678,296,59
371695,333,59
371695,317,59
371711,297,59
371725,336,59
371736,292,59
371744,317,59
371755,323,59
371767,291,59
371776,337,59
371787,300,59
371794,310,59
371794,337,59
371818,291,59
371827,332,59
371827,316,59
371844,301,59
371859,342,59
371870,296,59
371878,323,59
371889,331,59
371900,296,59
371910,342,59
371920,311,59
371927,315,59
371941,344,59
371951,298,59
371961,336,59
371972,324,59
371982,307,59
371993,346,59
372003,303,59
372010,325,59
372023,337,59
372033,301,59
372044,351,59
372054,325,59
372060,322,59
372060,354,59
372078,304,59
372093,332,59
372105,324,59
372111,301,59
372125,343,59
372136,301,59
372144,320,59
372157,331,59
372166,292,59
372178,338,59
372188,312,59
372194,313,59
372194,344,59
372210,299,59
372228,345,59
372239,411,60
372244,475,60
372260,450,60
372269,264,60
372277,300,60
372290,328,60
372300,293,60
372311,342,60
372320,313,60
372327,311,60
372327,345,60
372344,303,60
372361,342,60
372372,335,60
372377,311,60
372393,357,60
372403,318,60
372411,339,60
372418,356,60
372434,321,60
372444,371,60
372455,355,60
372461,359,60
372475,400,60
372485,361,60
372494,401,60
372494,394,60
372510,358,60
372526,379,60
372536,318,60
372544,319,60
372544,327,60
372568,280,60
372578,322,60
372578,299,60
372594,293,60
372608,328,60
372617,282,60
372628,313,60
372639,314,60
372649,287,60
372660,332,60
372670,296,60
372677,309,60
372691,331,60
372701,291,60
372711,336,60
372714,315,60
372727,305,60
372741,342,60
372752,296,60
372761,327,60
372773,328,60
372778,298,60
372794,342,60
372794,305,60
372811,317,60
372824,341,60
372834,297,60
372844,339,60
372855,320,60
372862,306,60
372876,345,60
372878,300,60
372894,328,60
372907,333,60
372916,302,60
372926,347,60
372936,312,60
372943,321,60
372957,346,60
372966,304,60
372977,345,60
372989,329,60
372994,320,60
373008,362,60
373019,316,60
373028,343,60
373028,341,60
373049,304,60
373060,352,60
373070,316,60
373077,320,60
373091,344,60
373101,301,60
373104,343,60
373121,327,60
373132,311,60
373137,354,60
373152,310,60
373163,337,60
373171,353,60
373184,334,60
373193,484,59
373203,480,59
373204,389,59
373221,289,59
373235,298,59
373239,337,59
373254,324,59
373265,306,59
373271,348,59
373286,309,59
373296,335,59
373304,344,59
373317,308,59
373325,357,59
373337,328,59
373347,330,59
373354,363,59
373363,319,59
373378,362,59
373388,355,59
373391,339,59
373404,389,59
373419,355,59
373430,383,59
373438,403,59
373438,367,59
373460,413,59
373470,372,59
373471,349,59
373491,364,59
373502,302,59
373505,329,59
373521,315,59
373521,293,59
373537,337,59
373553,296,59
373563,314,59
373570,330,59
373584,291,59
373594,336,59
373604,308,59
373615,304,59
373625,339,59
373635,295,59
373645,327,59
373653,322,59
373666,297,59
373672,341,59
373686,297,59
373696,317,59
373704,332,59
373717,294,59
373727,342,59
373737,315,59
373737,310,59
373753,346,59
373768,298,59
373779,336,59
373788,330,59
373799,302,59
373809,349,59
373820,308,59
373831,324,59
373837,344,59
373851,300,59
373860,345,59
373870,323,59
373881,313,59
373891,352,59
373901,303,59
373904,336,59
373920,336,59
373933,305,59
373943,352,59
373953,312,59
373964,327,59
373971,346,59
373983,301,59
373995,349,59
374004,329,59
374015,314,59
374024,357,59
374035,309,59
374045,340,59
374054,340,59
374067,309,59
374072,358,59
374086,320,59
374097,334,59
374104,365,59
374104,319,59
374122,362,59
374137,338,59
374148,314,59
374155,353,59
374155,311,59
374171,336,59
374187,337,59
374199,306,59
374207,351,59
374220,314,59
374230,322,59
374238,349,59
374238,306,59
374254,349,59
374271,329,59
374271,322,59
374292,401,58
374302,479,58
374312,508,58
374321,364,58
374321,254,58
374338,349,58
374354,310,58
374364,311,58
374371,344,58
374384,303,58
374394,342,58
374404,327,58
374404,312,58
374425,357,58
374436,312,58
374438,336,58
374454,347,58
374467,315,58
374471,364,58
374487,333,58
374497,340,58
374505,379,58
374518,341,58
374525,392,58
374537,387,58
374548,375,58
374554,422,58
374569,376,58
374572,384,58
374587,370,58
374592,314,58
374611,346,58
374620,306,58
374622,302,58
374638,333,58
374651,284,58
374655,326,58
374672,311,58
374672,291,58
374693,338,58
374703,296,58
374713,317,58
374721,330,58
374733,289,58
374744,337,58
374754,308,58
374764,307,58
374771,340,58
374784,294,58
374795,330,58
374804,324,58
374816,297,58
374822,345,58
374837,303,58
374838,321,58
374854,338,58
374867,293,58
374877,342,58
374887,315,58
374898,307,58
374904,342,58
374918,298,58
374928,333,58
374938,329,58
374949,302,58
374959,347,58
374969,309,58
374979,323,58
374987,340,58
374992,301,58
375011,348,58
375021,322,58
375032,314,58
375037,350,58
375052,305,58
375062,339,58
375071,333,58
375082,306,58
375093,355,58
375102,314,58
375113,328,58
375120,348,58
375133,304,58
375137,351,58
375154,330,58
375165,321,58
375173,358,58
375185,312,58
375195,342,58
375204,342,58
375215,309,58
375221,358,58
375236,321,58
375238,334,58
375254,362,58
375264,317,58
375271,364,58
375288,337,58
375298,315,58
375304,352,58
375318,307,58
375329,337,58
375338,338,58
375349,306,58
375354,354,58
375370,316,58
375380,327,58
375388,351,58
375393,306,58
375405,350,58
375421,330,58
375432,323,58
375437,423,57
375452,507,57
375462,515,57
375471,334,57
375482,269,57
375493,354,57
375504,311,57
375513,317,57
375521,343,57
375533,302,57
375544,344,57
375554,330,57
375554,316,57
375571,356,57
375586,314,57
375596,342,57
375604,350,57
375612,317,57
375626,370,57
375637,340,57
375647,349,57
375654,385,57
375667,346,57
375678,395,57
375687,390,57
375698,378,57
375704,426,57
375719,379,57
375729,389,57
375737,373,57
375737,316,57
375755,344,57
375770,305,57
375781,300,57
375788,325,57
375800,279,57
375811,322,57
375821,310,57
375832,292,57
375838,332,57
375852,290,57
375855,315,57
375871,326,57
375883,288,57
375893,334,57
375903,305,57
375913,303,57
375918,337,57
375934,294,57
375945,329,57
375951,318,57
375965,296,57
375976,341,57
375985,299,57
375993,321,57
376007,335,57
376016,293,57
376026,340,57
376034,314,57
376047,310,57
376058,342,57
376067,298,57
376078,334,57
376084,328,57
376099,302,57
376109,349,57
376119,308,57
376130,325,57
376140,345,57
376150,301,57
376160,347,57
376167,322,57
376181,318,57
376191,353,57
376200,304,57
376212,340,57
376218,336,57
376232,308,57
376242,356,57
376250,316,57
376262,331,57
376273,348,57
376284,308,57
376294,352,57
376300,326,57
376314,321,57
376318,357,57
376334,312,57
376334,345,57
376350,341,57
376365,322,57
376376,369,57
376385,328,57
376396,341,57
376402,350,57
376416,302,57
376428,349,57
376434,327,57
376434,314,57
376451,350,57
376468,304,57
376477,334,57
376483,334,57
376498,302,57
376501,350,57
376517,316,57
376530,326,57
376534,351,57
376550,327,57
376561,490,58
376568,519,58
376581,391,58
376584,283,58
376600,301,58
376613,326,58
376618,333,58
376632,301,58
376643,349,58
376651,314,58
376651,321,58
376667,347,58
376684,304,58
376694,350,58
376700,335,58
376714,323,58
376724,366,58
376734,324,58
376745,354,58
376750,364,58
376766,338,58
376776,391,58
376784,364,58
376797,379,58
376807,414,58
376817,372,58
376828,414,58
376833,390,58
376848,351,58
376851,369,58
376867,308,58
376877,321,58
376885,321,58
376900,281,58
376910,328,58
376917,291,58
376930,297,58
376941,325,58
376951,284,58
376951,323,58
376967,310,58
376982,293,58
376985,337,58
377000,291,58
377000,316,58
377017,329,58
377033,289,58
377036,338,58
377051,306,58
377064,308,58
377074,338,58
377084,291,58
377094,329,58
377101,316,58
377114,296,58
377121,340,58
377135,297,58
377145,319,58
377156,332,58
377166,296,58
377176,343,58
377185,312,58
377197,310,58
377200,344,58
377217,298,58
377225,337,58
377234,327,58
377248,305,58
377259,350,58
377267,307,58
377279,327,58
377284,341,58
377300,302,58
377301,347,58
377317,319,58
377331,319,58
377341,350,58
377350,308,58
377361,350,58
377368,341,58
377382,318,58
377384,357,58
377400,306,58
377412,323,58
377420,339,58
377434,300,58
377443,342,58
377450,316,58
377464,310,58
377468,345,58
377484,299,58
377495,337,58
377501,332,58
377515,306,58
377518,351,58
377533,320,58
377546,397,58
377551,526,59
377567,424,59
377577,311,59
377584,294,59
377598,312,59
377607,344,59
377617,301,59
377629,336,59
377634,331,59
377649,306,59
377659,354,59
377669,315,59
377679,329,59
377689,352,59
377700,317,59
377711,358,59
377717,339,59
377731,333,59
377735,376,59
377750,335,59
377762,374,59
377771,382,59
377782,362,59
377793,416,59
377801,385,59
377813,397,59
377823,412,59
377833,349,59
377844,367,59
377850,329,59
377865,304,59
377874,334,59
377884,287,59
377895,318,59
377900,315,59
377915,284,59
377926,331,59
377934,293,59
377947,304,59
377951,329,59
377967,285,59
377976,328,59
377983,312,59
377998,297,59
378008,340,59
378017,293,59
378028,323,59
378038,324,59
378049,295,59
378060,343,59
378067,309,59
378080,315,59
378090,341,59
378100,295,59
378100,336,59
378118,323,59
378131,308,59
378133,349,59
378151,303,59
378162,331,59
378168,337,59
378183,300,59
378193,347,59
378201,313,59
378213,322,59
378220,346,59
378233,304,59
378244,344,59
378251,333,59
378265,314,59
378270,363,59
378284,321,59
378296,344,59
378301,351,59
378316,308,59
378325,345,59
378334,315,59
378347,320,59
378350,347,59
378367,302,59
378378,341,59
378384,328,59
378399,306,59
378408,350,59
378417,307,59
378429,333,59
378434,345,59
378450,312,59
378460,370,59
378470,434,60
378480,483,60
378484,414,60
378501,251,60
378501,339,60
378521,323,60
378532,309,60
378542,352,60
378550,311,60
378562,332,60
378573,343,60
378583,312,60
378593,358,60
378600,330,60
378600,331,60
378617,364,60
378634,323,60
378644,359,60
378650,357,60
378665,338,60
378676,386,60
378685,356,60
378696,384,60
378706,407,60
378717,373,60
378727,423,60
378734,395,60
378747,374,60
378750,384,60
378767,316,60
378778,335,60
378784,319,60
378798,289,60
378801,331,60
378817,293,60
378829,307,60
378840,323,60
378849,284,60
378859,328,60
378868,302,60
378881,298,60
378891,335,60
378900,290,60
378911,323,60
378922,321,60
378932,295,60
378942,341,60
378950,302,60
378963,317,60
378973,333,60
378983,292,60
378991,336,60
379000,315,60
379014,303,60
379017,339,60
379034,298,60
379034,327,60
379050,330,60
379065,300,60
379075,346,60
379084,309,60
379096,322,60
379101,343,60
379117,303,60
379124,343,60
379134,330,60
379147,323,60
379157,360,60
379167,312,60
379178,332,60
379184,330,60
379199,303,60
379201,347,60
379217,310,60
379229,318,60
379240,339,60
379250,297,60
379261,341,60
379268,319,60
379281,314,60
379292,349,60
379302,306,60
379311,342,60
379318,372,60
379332,450,61
379334,470,61
379351,328,61
379351,279,61
379368,347,61
379384,292,61
379394,343,61
379400,326,61
379414,310,61
379424,353,61
379434,312,61
379445,338,61
379451,346,61
379466,313,61
379470,360,61
379484,327,61
379496,336,61
379508,365,61
379517,327,61
379528,375,61
379534,370,61
379547,360,61
379551,412,61
379568,379,61
379579,409,61
379585,415,61
379599,374,61
379610,398,61
379619,342,61
379630,325,61
379641,338,61
379651,288,61
379660,325,61
379669,309,61
379682,292,61
379692,331,61
379702,289,61
379713,313,61
379722,321,61
379732,285,61
379743,335,61
379750,304,61
379763,308,61
379771,338,61
379784,294,61
379784,332,61
379800,322,61
379815,304,61
379825,343,61
379834,300,61
379846,321,61
379851,331,61
379866,298,61
379877,342,61
379885,311,61
379897,313,61
379907,344,61
379917,301,61
379928,337,61
379934,327,61
379948,305,61
379951,347,61
379969,309,61
379979,328,61
379985,340,61
379999,309,61
380010,355,61
380017,330,61
380030,326,61
380040,352,61
380050,298,61
380061,337,61
380072,324,61
380082,302,61
380093,345,61
380100,305,61
380112,324,61
380122,340,61
380133,300,61
380134,343,61
380151,318,61
380151,314,61
380167,355,61
380183,327,61
380183,474,61
380200,466,61
380215,345,61
380225,298,61
380234,306,61
380234,316,61
380256,338,61
380267,302,61
380276,347,61
380284,327,61
380297,323,61
380308,358,61
380317,316,61
380328,350,61
380335,346,61
380335,322,61
380352,368,61
380367,335,61
380379,355,61
380390,374,61
380400,339,61
380410,393,61
380417,378,61
380431,381,61
380434,424,61
380450,381,61
380450,408,61
380468,389,61
380482,335,61
380484,361,61
380501,313,61
380511,315,61
380518,330,61
380534,291,61
380543,331,61
380551,309,61
380564,296,61
380575,333,61
380584,291,61
380595,320,61
380601,322,61
380615,292,61
380626,341,61
380635,306,61
380646,315,61
380650,343,61
380667,297,61
380671,339,61
380684,321,61
380698,307,61
380708,345,61
380717,300,61
380728,331,61
380734,334,61
380748,303,61
380751,348,61
380768,311,61
380775,322,61
380785,345,61
380800,300,61
380811,345,61
380817,326,61
380831,315,61
380835,354,61
380851,310,61
380862,338,61
380871,341,61
380882,307,61
380884,356,61
380901,322,61
380913,331,61
380918,364,61
380934,318,61
380944,358,61
380951,340,61
380951,313,61
380968,356,61
380984,313,61
380996,338,61
381000,345,61
381016,309,61
381026,353,61
381036,320,61
381046,322,61
381050,353,61
381067,308,61
381078,347,61
381084,332,61
381098,326,61
381108,417,61
381118,476,61
381129,465,61
381139,344,61
381149,267,61
381160,350,61
381168,314,61
381180,319,61
381185,351,61
381201,308,61
381211,349,61
381218,337,61
381218,320,61
381242,363,61
381252,322,61
381262,347,61
381268,356,61
381283,322,61
381293,370,61
381301,345,61
381313,350,61
381323,386,61
381334,350,61
381344,397,61
381350,394,61
381365,377,61
381369,423,61
381384,374,61
381395,381,61
381400,370,61
381417,315,61
381426,349,61
381433,316,61
381448,309,61
381458,340,61
381467,295,61
381478,330,61
381483,322,61
381499,298,61
381501,342,61
381517,303,61
381530,320,61
381535,335,61
381535,295,61
381560,340,61
381568,314,61
381581,309,61
381585,343,61
381601,297,61
381611,334,61
381617,328,61
381631,302,61
381642,346,61
381650,307,61
381663,324,61
381673,342,61
381683,302,61
381693,349,61
381700,322,61
381714,316,61
381717,350,61
381733,306,61
381745,338,61
381751,334,61
381751,309,61
381769,355,61
381785,313,61
381796,328,61
381801,345,61
381816,306,61
381827,349,61
381834,327,61
381848,318,61
381858,352,61
381868,305,61
381878,338,61
381884,335,61
381899,307,61
381909,352,61
381918,314,61
381920,325,61
381934,349,61
381949,316,61
381950,360,61
381968,337,61
381981,326,61
381991,354,61
382001,303,61
382011,336,61
382018,333,61
382032,301,61
382043,349,61
382051,314,61
382063,323,61
382073,345,61
382083,303,61
382085,346,61
382101,326,61
382115,314,61
382125,358,61
382134,328,61
382144,466,60
382152,513,60
382152,386,60
382176,288,60
382185,310,60
382185,316,60
382201,341,60
382217,296,60
382227,341,60
382235,327,60
382248,313,60
382258,353,60
382267,310,60
382278,336,60
382284,342,60
382299,309,60
382301,359,60
382317,330,60
382331,337,60
382335,366,60
382350,330,60
382352,380,60
382368,369,60
382381,360,60
382392,409,60
382401,369,60
382412,397,60
382417,394,60
382433,337,60
382443,362,60
382450,312,60
382464,308,60
382474,331,60
382483,284,60
382494,323,60
382501,308,60
382515,292,60
382525,333,60
382534,290,60
382546,313,60
382556,320,60
382566,285,60
382576,332,60
382584,300,60
382584,304,60
382607,332,60
382617,287,60
382626,327,60
382634,313,60
382648,296,60
382651,341,60
382667,293,60
382677,314,60
382685,326,60
382700,291,60
382710,339,60
382717,307,60
382730,308,60
382741,339,60
382751,296,60
382761,334,60
382771,322,60
382782,301,60
382792,345,60
382802,304,60
382812,324,60
382819,333,60
382819,295,60
382843,342,60
382851,313,60
382863,310,60
382874,344,60
382884,299,60
382894,336,60
382902,327,60
382915,306,60
382926,350,60
382934,307,60
382946,327,60
382951,340,60
382967,301,60
382976,349,60
382984,323,60
382997,318,60
383008,354,60
383018,308,60
383028,343,60
383035,335,60
383035,312,60
383051,360,60
383068,315,60
383080,343,60
383090,360,60
383100,319,60
383102,365,60
383117,328,60
383131,318,60
383135,355,60
383151,306,60
383161,340,60
383167,336,60
383182,311,60
383192,354,60
383202,314,60
383202,331,60
383219,349,60
383233,307,60
383243,353,60
383251,331,60
383264,341,60
383274,488,59
383285,514,59
383296,455,59
383303,272,59
383303,307,59
383319,352,59
383334,312,59
383346,327,59
383351,347,59
383367,307,59
383377,354,59
383384,331,59
383398,325,59
383408,364,59
383418,319,59
383428,351,59
383439,355,59
383449,327,59
383459,375,59
383469,340,59
383469,359,59
383485,387,59
383500,352,59
383511,407,59
383518,393,59
383531,388,59
383541,426,59
383550,373,59
383562,383,59
383572,360,59
383582,312,59
383593,346,59
383603,302,59
383613,309,59
383623,334,59
383634,289,59
383644,332,59
383651,311,59
383651,300,59
383668,338,59
383684,292,59
383695,322,59
383703,322,59
383716,288,59
383725,337,59
383735,304,59
383747,312,59
383757,338,59
383767,291,59
383777,335,59
383785,315,59
383797,302,59
383808,344,59
383818,297,59
383823,327,59
383834,330,59
383850,296,59
383852,344,59
383867,309,59
383880,318,59
383891,342,59
383900,300,59
383911,341,59
383917,322,59
383931,307,59
383941,347,59
383951,302,59
383962,329,59
383972,337,59
383983,300,59
383992,347,59
384003,312,59
384014,315,59
384024,342,59
384034,299,59
384044,342,59
384052,327,59
384052,307,59
384070,352,59
384085,308,59
384085,332,59
384103,339,59
384116,302,59
384125,349,59
384135,320,59
384135,325,59
384152,357,59
384167,309,59
384178,356,59
384184,347,59
384198,327,59
384209,370,59
384218,315,59
384229,330,59
384234,342,59
384250,302,59
384251,349,59
384267,316,59
384281,317,59
384291,347,59
384301,302,59
384311,341,59
384318,333,59
384332,311,59
384335,357,59
384351,315,59
384363,344,59
384368,463,59
384383,509,59
384393,470,59
384400,249,59
384414,307,59
384424,343,59
384434,298,59
384444,334,59
384450,326,59
384465,303,59
384468,350,59
384485,309,59
384485,330,59
384504,345,59
384517,306,59
384527,354,59
384534,329,59
384534,328,59
384558,366,59
384567,328,59
384578,369,59
384584,369,59
384598,353,59
384604,408,59
384617,372,59
384630,396,59
384635,413,59
384635,365,59
384651,389,59
384667,341,59
384681,320,59
384685,340,59
384701,287,59
384712,320,59
384718,314,59
384726,286,59
384742,334,59
384751,294,59
384762,308,59
384772,329,59
384784,288,59
384794,332,59
384801,306,59
384804,299,59
384825,335,59
384834,290,59
384834,325,59
384851,321,59
384866,296,59
384876,344,59
384884,301,59
384896,315,59
384906,332,59
384917,290,59
384928,334,59
384935,314,59
384935,304,59
384959,344,59
384968,299,59
384976,333,59
384985,331,59
384985,302,59
385005,349,59
385017,310,59
385026,323,59
385041,343,59
385050,301,59
385061,344,59
385068,322,59
385081,313,59
385092,352,59
385101,306,59
385112,338,59
385121,335,59
385121,303,59
385134,353,59
385152,313,59
385152,333,59
385168,361,59
385183,316,59
385184,356,59
385204,327,59
385209,308,59
385225,349,59
385234,304,59
385245,334,59
385255,336,59
385266,300,59
385276,347,59
385285,310,59
385297,321,59
385305,345,59
385317,302,59
385322,346,59
385334,338,59
385348,358,59
385351,517,60
385368,466,60
385376,362,60
385385,285,60
385385,305,60
385406,346,60
385420,313,60
385429,321,60
385435,347,60
385451,304,60
385461,345,60
385468,328,60
385482,314,60
385484,356,60
385501,315,60
385512,344,60
385521,350,60
385521,323,60
385535,374,60
385551,342,60
385551,356,60
385567,391,60
385584,358,60
385585,406,60
385601,397,60
385615,382,60
385618,421,60
385634,361,60
385646,361,60
385651,349,60
385666,302,60
385677,337,60
385684,302,60
385697,303,60
385706,331,60
385717,285,60
385728,325,60
385739,311,60
385748,292,60
385752,334,60
385768,291,60
385779,318,60
385785,327,60
385800,291,60
385810,337,60
385820,304,60
385830,309,60
385841,338,60
385851,291,60
385851,331,60
385868,322,60
385881,300,60
385892,342,60
385901,300,60
385913,322,60
385923,332,60
385933,295,60
385943,340,60
385951,308,60
385951,309,60
385968,341,60
385985,297,60
385995,335,60
386002,328,60
386006,303,60
386018,348,60
386034,305,60
386036,327,60
386051,340,60
386067,305,60
386077,360,60
386084,329,60
386098,329,60
386106,353,60
386117,298,60
386129,335,60
386136,329,60
386150,302,60
386151,345,60
386168,304,60
386170,323,60
386190,338,60
386200,296,60
386206,346,60
386219,318,60
386231,317,60
386241,352,60
386251,316,60
386262,420,61
386268,510,61
386282,400,61
386286,302,61
386301,291,61
386311,321,61
386318,337,61
386334,300,61
386344,345,61
386351,322,61
386364,317,61
386375,353,61
386385,310,61
386385,344,61
386406,343,61
386416,319,61
386427,366,61
386434,330,61
386447,349,61
386452,372,61
386467,335,61
386475,389,61
386485,373,61
386497,377,61
386508,421,61
386517,380,61
386529,412,61
386535,398,61
386549,346,61
386560,368,61
386568,305,61
386581,311,61
386591,324,61
386601,280,61
386611,323,61
386619,300,61
386631,290,61
386641,328,61
386650,283,61
386663,314,61
386667,312,61
386683,286,61
386693,331,61
386702,295,61
386713,311,61
386721,332,61
386734,292,61
386744,333,61
386751,315,61
386765,305,61
386775,342,61
386784,295,61
386796,329,61
386801,328,61
386816,302,61
386826,346,61
386834,312,61
386848,319,61
386855,342,61
386867,301,61
386878,341,61
386885,323,61
386899,314,61
386908,351,61
386918,314,61
386929,348,61
386934,349,61
386950,316,61
386952,354,61
386968,313,61
386981,325,61
386990,346,61
387001,300,61
387011,341,61
387018,325,61
387024,314,61
387034,350,61
387052,306,61
387063,333,61
387068,341,61
387076,306,61
387093,361,61
387102,347,61
387114,465,62
387117,475,62
387134,327,62
387145,298,62
387151,326,62
387165,303,62
387176,351,62
387185,309,62
387196,336,62
387201,341,62
387215,313,62
387226,358,62
387234,327,62
387248,335,62
387251,362,62
387268,322,62
387269,365,62
387284,350,62
387299,342,62
387309,389,62
387319,353,62
387330,387,62
387335,403,62
387335,378,62
387360,432,62
387369,399,62
387382,394,62
387389,397,62
387403,334,62
387412,352,62
387418,323,62
387432,303,62
387434,339,62
387452,295,62
387452,322,62
387468,325,62
387483,293,62
387494,340,62
387501,306,62
387515,309,62
387522,340,62
387534,296,62
387545,333,62
387551,324,62
387551,305,62
387576,343,62
387585,304,62
387597,326,62
387601,336,62
387616,302,62
387627,345,62
387635,313,62
387635,315,62
387658,345,62
387668,299,62
387677,340,62
387684,324,62
387699,311,62
387710,357,62
387718,316,62
387729,341,62
387735,357,62
387750,317,62
387761,364,62
387768,330,62
387781,318,62
387785,345,62
387801,302,62
387812,337,62
387822,328,62
387833,303,62
387834,345,62
387851,301,62
387851,323,62
387868,333,62
387884,299,62
387894,341,62
387900,314,62
387914,317,62
387925,358,62
387934,393,62
387946,500,63
387952,397,63
387952,254,63
387969,337,63
387986,298,63
387997,321,63
388001,337,63
388017,298,63
388026,347,63
388035,319,63
388035,322,63
388058,357,63
388068,311,63
388079,350,63
388085,345,63
388085,324,63
388109,371,63
388119,334,63
388127,356,63
388140,378,63
388150,347,63
388152,400,63
388170,384,63
388179,390,63
388192,426,63
388202,375,63
388212,396,63
388218,366,63
388233,317,63
388235,344,63
388251,299,63
388263,312,63
388271,323,63
388284,280,63
388284,325,63
388301,304,63
388309,298,63
388319,330,63
388335,287,63
388345,323,63
388352,318,63
388366,295,63
388373,335,63
388385,298,63
388398,315,63
388407,333,63
388418,291,63
388428,337,63
388434,311,63
388448,304,63
388451,340,63
388469,295,63
388479,330,63
388485,329,63
388500,300,63
388509,344,63
388518,304,63
388530,321,63
388541,340,63
388551,297,63
388561,347,63
388571,324,63
388582,313,63
388584,356,63
388601,316,63
388613,345,63
388617,341,63
388633,306,63
388643,347,63
388651,312,63
388664,322,63
388673,340,63
388684,300,63
388695,339,63
388701,320,63
388709,314,63
388726,350,63
388735,304,63
388746,332,63
388757,335,63
388767,308,63
388777,363,63
388784,428,63
388797,483,63
388801,419,63
388818,245,63
388820,333,63
388835,315,63
388848,307,63
388859,347,63
388868,304,63
388876,336,63
388884,337,63
388900,308,63
388911,355,63
388918,321,63
388930,330,63
388941,356,63
388952,314,63
388962,358,63
388968,342,63
388983,336,63
388985,384,63
389001,345,63
389013,382,63
389023,397,63
389033,369,63
389044,422,63
389051,381,63
389064,368,63
389075,371,63
389085,310,63
389095,339,63
389101,314,63
389115,296,63
389122,336,63
389134,293,63
389134,317,63
389157,321,63
389167,288,63
389176,333,63
389185,300,63
389185,304,63
389208,331,63
389218,291,63
389227,330,63
389234,318,63
389234,301,63
389259,340,63
389268,297,63
389280,324,63
389290,332,63
389300,298,63
389311,342,63
389319,310,63
389322,315,63
389342,341,63
389351,298,63
389363,337,63
389369,322,63
389376,304,63
389393,348,63
389401,303,63
389413,329,63
389418,338,63
389434,302,63
389435,349,63
389452,317,63
389465,319,63
389469,350,63
389485,303,63
389485,341,63
389501,338,63
389516,319,63
389526,361,63
389536,316,63
389546,328,63
389557,339,63
389567,301,63
389578,346,63
389585,317,63
389598,315,63
389608,342,63
389619,299,63
389629,335,63
389635,328,63
389650,309,63
389652,350,63
389668,307,63
389680,339,63
389691,381,63
389701,454,63
389710,497,63
389718,366,63
389728,262,63
389736,341,63
389751,298,63
389762,334,63
389768,326,63
389775,302,63
389784,347,63
389801,309,63
389814,331,63
389818,347,63
389834,305,63
389845,353,63
389852,327,63
389852,325,63
389868,363,63
389884,321,63
389896,361,63
389902,360,63
389910,343,63
389919,399,63
389935,366,63
389948,392,63
389952,410,63
389967,364,63
389978,394,63
389984,346,63
389998,325,63
390002,347,63
390019,292,63
390030,323,63
390040,318,63
390050,290,63
390060,336,63
390068,297,63
390081,313,63
390090,333,63
390101,291,63
390111,336,63
390121,312,63
390132,304,63
390142,341,63
390152,292,63
390163,327,63
390168,323,63
390184,297,63
390186,344,63
390201,304,63
390212,317,63
390219,336,63
390234,296,63
390245,341,63
390251,317,63
390266,309,63
390276,344,63
390284,301,63
390296,334,63
390301,333,63
390317,304,63
390327,351,63
390335,312,63
390348,321,63
390358,345,63
390367,300,63
390379,343,63
390385,325,63
390400,313,63
390409,351,63
390418,307,63
390429,337,63
390440,336,63
390451,304,63
390461,354,63
390468,315,63
390482,324,63
390491,349,63
390502,304,63
390511,349,63
390521,329,63
390521,315,63
390543,356,63
390551,310,63
390564,346,63
390568,351,63
390583,314,63
390594,362,63
390601,324,63
390615,320,63
390625,346,63
390635,304,63
390635,344,63
390652,326,63
390662,311,63
390668,352,63
390684,304,63
390697,330,63
390707,335,63
390717,305,63
390727,351,63
390735,315,63
390748,330,63
390758,397,63
390768,473,62
390779,500,62
390785,342,62
390785,260,62
390802,343,62
390818,296,62
390830,325,62
390840,331,62
390850,298,62
390861,345,62
390868,314,62
390881,322,62
390892,352,62
390901,308,62
390913,347,62
390920,336,62
390920,321,62
390943,367,62
390951,328,62
390963,354,62
390974,369,62
390984,340,62
390995,396,62
391001,373,62
391015,379,62
391025,414,62
391034,366,62
391046,388,62
391056,355,62
391066,316,62
391068,346,62
391085,297,62
391097,317,62
391102,329,62
391117,288,62
391128,336,62
391135,304,62
391149,305,62
391158,335,62
391168,293,62
391179,330,62
391185,321,62
391185,299,62
391200,344,62
391218,302,62
391230,324,62
391241,334,62
391251,297,62
391251,341,62
391268,315,62
391277,314,62
391292,347,62
391302,300,62
391312,337,62
391318,330,62
391333,307,62
391343,354,62
391352,312,62
391363,333,62
391373,345,62
391385,304,62
391394,351,62
391402,327,62
391414,322,62
391423,356,62
391435,308,62
391447,345,62
391452,337,62
391467,313,62
391476,359,62
391485,315,62
391485,333,62
391501,348,62
391518,309,62
391522,352,62
391535,328,62
391549,321,62
391552,357,62
391569,310,62
391579,346,62
391584,342,62
391600,316,62
391610,361,62
391618,321,62
391630,336,62
391635,352,62
391651,314,62
391662,357,62
391668,333,62
391682,333,62
391692,374,62
391701,325,62
391712,355,62
391718,344,62
391724,312,62
391744,357,62
391751,319,62
391764,331,62
391775,351,62
391784,309,62
391795,351,62
391801,329,62
391816,318,62
391822,357,62
391836,311,62
391846,340,62
391852,347,62
391866,357,62
391876,525,61
391884,491,61
391898,357,61
391902,300,61
391919,307,61
391926,344,61
391934,325,61
391949,314,61
391959,350,61
391968,304,61
391980,338,61
391985,339,61
392000,311,61
392010,357,61
392021,323,61
392031,334,61
392035,361,61
392052,320,61
392052,365,61
392068,353,61
392083,344,61
392093,393,61
392102,357,61
392113,394,61
392124,402,61
392133,374,61
392144,419,61
392152,371,61
392165,356,61
392172,360,61
392184,302,61
392184,335,61
392201,312,61
392216,294,61
392226,333,61
392236,289,61
392236,316,61
392252,321,61
392268,288,61
392278,336,61
392285,303,61
392285,307,61
392308,336,61
392319,292,61
392329,334,61
392335,319,61
392349,301,61
392359,342,61
392368,298,61
392375,325,61
392391,329,61
392401,297,61
392411,342,61
392418,308,61
392432,313,61
392435,343,61
392452,297,61
392452,338,61
392469,325,61
392483,305,61
392485,346,61
392501,305,61
392514,325,61
392524,332,61
392534,296,61
392535,343,61
392551,312,61
392565,317,61
392575,344,61
392585,297,61
392585,338,61
392602,326,61
392613,306,61
392627,349,61
392634,304,61
392648,329,61
392657,340,61
392668,299,61
392678,347,61
392685,318,61
392699,320,61
392702,351,61
392719,304,61
392729,351,61
392739,343,61
392749,321,61
392760,362,61
392768,310,61
392781,327,61
392785,341,61
392801,303,61
392810,348,61
392818,318,61
392827,317,61
392842,347,61
392851,304,61
392862,343,61
392868,332,61
392875,310,61
392893,356,61
392902,317,61
392914,380,61
392918,520,62
392934,463,62
392945,349,62
392952,272,62
392965,316,62
392976,343,62
392985,298,62
392997,337,62
393002,330,62
393017,308,62
393027,352,62
393035,314,62
393047,331,62
393058,350,62
393067,311,62
393079,362,62
393085,340,62
393099,338,62
393109,379,62
393119,339,62
393129,378,62
393134,382,62
393146,366,62
393157,418,62
393170,383,62
393180,401,62
393191,416,62
393200,358,62
393207,384,62
393221,338,62
393232,317,62
393241,342,62
393252,295,62
393256,326,62
393273,322,62
393284,296,62
393290,341,62
393303,303,62
393314,314,62
393323,337,62
393335,295,62
393340,339,62
393355,317,62
393366,308,62
393374,345,62
393386,300,62
393391,333,62
393407,331,62
393417,297,62
393424,346,62
393428,307,62
393448,318,62
393458,341,62
393466,296,62
393475,339,62
393489,318,62
393499,307,62
393506,346,62
393514,302,62
393523,328,62
393540,331,62
393540,300,62
393557,347,62
393566,310,62
393574,320,62
393590,343,62
393602,298,62
393607,342,62
393621,326,62
393625,310,62
393641,347,62
393653,305,62
393657,335,62
393673,341,62
393684,316,62
393691,363,62
393691,325,62
393715,333,62
393725,349,62
393735,298,62
393743,342,62
393756,326,62
393765,310,62
393774,348,62
393787,304,62
393797,330,62
393807,336,62
393817,304,62
393825,351,62
393838,314,62
393848,320,62
393857,356,62
393869,329,62
393879,477,63
393889,492,63
393900,362,63
393907,286,63
393921,300,63
393924,321,63
393940,331,63
393951,296,63
393957,345,63
393966,315,63
393973,320,63
393991,349,63
394002,309,63
394008,348,63
394015,338,63
394033,321,63
394041,365,63
394041,324,63
394058,350,63
394074,365,63
394085,338,63
394091,390,63
394104,372,63
394115,379,63
394124,416,63
394136,376,63
394146,408,63
394156,383,63
394166,337,63
394173,360,63
394187,303,63
394191,315,63
394206,321,63
394218,282,63
394225,327,63
394225,295,63
394248,294,63
394257,327,63
394267,280,63
394279,319,63
394290,311,63
394301,288,63
394308,334,63
394321,293,63
394324,312,63
394340,329,63
394351,286,63
394357,334,63
394372,306,63
394372,302,63
394388,334,63
394388,288,63
394412,326,63
394417,314,63
394433,293,63
394444,335,63
394452,299,63
394464,314,63
394472,332,63
394484,294,63
394484,336,63
394501,311,63
394515,308,63
394526,341,63
394533,300,63
394546,333,63
394557,331,63
394566,314,63
394577,355,63
394584,315,63
394598,328,63
394608,333,63
394617,296,63
394629,340,63
394634,316,63
394649,307,63
394659,346,63
394668,301,63
394668,334,63
394684,332,63
394700,302,63
394711,351,63
394717,312,63
394731,328,63
394734,355,63
394750,368,63
394750,512,63
394768,415,63
394776,277,63
394784,324,63
394800,299,63
394813,333,63
394817,331,63
394833,304,63
394844,348,63
394850,314,63
394865,331,63
394872,350,63
394883,311,63
394895,354,63
394901,334,63
394901,328,63
394927,370,63
394934,328,63
394934,364,63
394957,372,63
394967,350,63
394977,405,63
394984,377,63
394998,394,63
395008,424,63
395017,378,63
395029,407,63
395034,366,63
395050,329,63
395059,350,63
395069,298,63
395080,319,63
395091,323,63
395101,287,63
395101,332,63
395117,297,63
395131,306,63
395142,330,63
395151,290,63
395162,332,63
395167,316,63
395183,303,63
395192,343,63
395200,300,63
395213,327,63
395224,329,63
395233,295,63
395244,340,63
395254,308,63
395265,312,63
395271,340,63
395282,296,63
395295,337,63
395303,321,63
395316,303,63
395323,345,63
395337,306,63
395346,328,63
395354,335,63
395367,301,63
395371,349,63
395387,318,63
395399,322,63
395404,350,63
395419,311,63
395429,353,63
395438,338,63
395449,315,63
395460,346,63
395471,304,63
395481,327,63
395487,334,63
395501,296,63
395511,344,63
395521,313,63
395532,317,63
395537,348,63
395552,300,63
395563,339,63
395570,330,63
395582,312,63
395588,362,63
395604,392,63
395614,497,64
395621,414,64
395635,257,64
395645,339,64
395654,318,64
395665,319,64
395676,352,64
