Timestamp,ECGValue,BPM
2646501,310,59
2646517,311,59
2646527,314,59
2646533,314,59
2646541,315,59
2646558,314,59
2646566,319,59
2646579,318,59
2646582,316,59
2646599,316,59
2646610,318,59
2646615,318,59
2646624,320,59
2646640,324,59
2646650,320,59
2646650,321,59
2646665,322,59
2646681,324,59
2646692,322,59
2646699,322,59
2646712,324,59
2646722,323,59
2646733,334,59
2646743,337,59
2646749,332,59
2646763,339,59
2646767,330,59
2646783,327,59
2646794,326,59
2646804,321,59
2646815,325,59
2646825,326,59
2646834,321,59
2646834,320,59
2646856,336,59
2646866,526,58
2646877,659,58
2646882,652,58
2646897,238,58
2646909,266,58
2646916,317,58
2646928,311,58
2646938,305,58
2646949,312,58
2646951,313,58
2646967,314,58
2646979,320,58
2646990,317,58
2646999,321,58
2647010,327,58
2647016,325,58
2647030,330,58
2647041,337,58
2647050,338,58
2647061,344,58
2647065,345,58
2647082,352,58
2647086,362,58
2647099,368,58
2647113,378,58
2647120,384,58
2647132,389,58
2647144,402,58
2647154,396,58
2647165,393,58
2647175,376,58
2647183,353,58
2647195,331,58
2647200,312,58
2647215,303,58
2647226,296,58
2647233,289,58
2647246,290,58
2647250,289,58
2647265,290,58
2647277,292,58
2647287,291,58
2647297,297,58
2647308,300,58
2647315,297,58
2647329,299,58
2647339,301,58
2647349,303,58
2647360,305,58
2647366,300,58
2647366,307,58
2647390,303,58
2647399,302,58
2647411,305,58
2647416,302,58
2647431,304,58
2647442,304,58
2647450,304,58
2647450,309,58
2647473,305,58
2647483,310,58
2647493,310,58
2647501,308,58
2647513,311,58
2647524,312,58
2647533,310,58
2647545,315,58
2647554,313,58
2647565,317,58
2647575,315,58
2647583,312,58
2647596,317,58
2647606,315,58
2647616,320,58
2647627,321,58
2647633,319,58
2647647,323,58
2647657,321,58
2647665,321,58
2647665,324,58
2647683,323,58
2647698,321,58
2647709,331,58
2647716,329,58
2647728,324,58
2647740,326,58
2647750,327,58
2647760,330,58
2647766,326,58
2647780,328,58
2647788,329,58
2647799,333,58
2647811,332,58
2647822,330,58
2647832,331,58
2647841,332,58
2647850,335,58
2647863,344,58
2647866,345,58
2647883,345,58
2647894,345,58
2647899,333,58
2647914,337,58
2647925,334,58
2647933,333,58
2647943,336,58
2647953,332,58
2647966,335,58
2647976,328,58
2647982,362,58
2647996,560,57
2648006,658,57
2648015,625,57
2648027,238,57
2648037,294,57
2648047,336,57
2648058,318,57
2648066,314,57
2648079,320,57
2648089,321,57
2648099,323,57
2648110,328,57
2648116,326,57
2648130,331,57
2648140,334,57
2648150,336,57
2648150,341,57
2648171,338,57
2648181,343,57
2648192,349,57
2648199,353,57
2648199,359,57
2648222,365,57
2648233,371,57
2648241,381,57
2648250,388,57
2648250,396,57
2648266,398,57
2648283,400,57
2648295,401,57
2648300,385,57
2648315,365,57
2648315,345,57
2648333,325,57
2648346,314,57
2648350,306,57
2648366,307,57
2648366,302,57
2648386,300,57
2648397,303,57
2648407,303,57
2648416,304,57
2648428,307,57
2648438,307,57
2648449,313,57
2648459,306,57
2648467,309,57
2648479,310,57
2648483,309,57
2648499,313,57
2648510,310,57
2648520,310,57
2648531,314,57
2648539,313,57
2648549,311,57
2648549,315,57
2648572,311,57
2648582,314,57
2648590,313,57
2648600,314,57
2648613,315,57
2648620,316,57
2648633,316,57
2648642,318,57
2648650,317,57
2648664,317,57
2648675,322,57
2648683,320,57
2648695,320,57
2648706,319,57
2648716,319,57
2648726,325,57
2648732,324,57
2648747,328,57
2648756,325,57
2648767,326,57
2648768,326,57
2648783,328,57
2648798,328,57
2648800,328,57
2648816,326,57
2648829,330,57
2648839,330,57
2648849,332,57
2648860,330,57
2648865,331,57
2648880,336,57
2648890,330,57
2648899,332,57
2648911,332,57
2648917,334,57
2648931,334,57
2648941,337,57
2648950,333,57
2648950,332,57
2648967,337,57
2648983,346,57
2648993,347,57
2649003,344,57
2649013,345,57
2649024,341,57
2649032,334,57
2649044,332,57
2649050,336,57
2649065,338,57
2649075,333,57
2649085,337,57
2649096,324,57
2649106,389,57
2649115,645,57
2649127,659,57
2649133,547,57
2649137,213,57
2649158,310,57
2649167,325,57
2649178,322,57
2649188,317,57
2649199,321,57
2649209,322,57
2649217,322,57
2649229,327,57
2649234,329,57
2649249,329,57
2649260,336,57
2649266,338,57
2649281,341,57
2649290,345,57
2649299,348,57
2649311,352,57
2649322,355,57
2649332,365,57
2649334,372,57
2649350,377,57
2649350,387,57
2649373,399,57
2649383,405,57
2649394,413,57
2649399,411,57
2649414,401,57
2649417,384,57
2649434,360,57
2649445,336,57
2649452,317,57
2649466,307,57
2649476,301,57
2649483,294,57
2649497,295,57
2649502,291,57
2649516,294,57
2649527,297,57
2649533,300,57
2649533,299,57
2649549,301,57
2649566,300,57
2649579,305,57
2649582,306,57
2649599,304,57
2649610,306,57
2649617,307,57
2649630,306,57
2649640,307,57
2649649,302,57
2649649,306,57
2649667,302,57
2649667,305,57
2649683,306,57
2649700,305,57
2649712,306,57
2649715,302,57
2649732,304,57
2649743,309,57
2649751,308,57
2649763,307,57
2649774,312,57
2649782,309,57
2649795,312,57
2649804,309,57
2649815,314,57
2649825,311,57
2649835,315,57
2649835,316,57
2649850,315,57
2649866,313,57
2649866,319,57
2649884,315,57
2649897,319,57
2649908,320,57
2649916,318,57
2649927,318,57
2649938,318,57
2649949,328,57
2649959,334,57
2649966,330,57
2649979,334,57
2649990,326,57
2650000,318,57
2650010,322,57
2650016,321,57
2650031,320,57
2650032,323,57
2650049,324,57
2650061,314,57
2650072,334,57
2650082,520,57
2650093,659,57
2650100,653,57
2650114,236,57
2650124,267,57
2650132,320,57
2650144,309,57
2650154,307,57
2650164,311,57
2650167,315,57
2650183,312,57
2650193,316,57
2650200,321,57
2650215,323,57
2650215,323,57
2650233,326,57
2650247,334,57
2650256,333,57
2650266,340,57
2650277,343,57
2650288,346,57
2650297,352,57
2650308,363,57
2650315,365,57
2650328,376,57
2650339,388,57
2650349,397,57
2650360,401,57
2650370,401,57
2650380,394,57
2650390,378,57
2650400,350,57
2650411,332,57
2650417,312,57
2650428,297,57
2650442,295,57
2650450,289,57
2650462,290,57
2650473,287,57
2650482,290,57
2650492,294,57
2650500,294,57
2650513,297,57
2650523,292,57
2650533,295,57
2650545,302,57
2650555,303,57
2650566,303,57
2650575,307,57
2650582,305,57
2650596,303,57
2650599,302,57
2650616,302,57
2650627,304,57
2650634,306,57
2650648,309,57
2650650,307,57
2650665,305,57
2650665,307,57
2650683,307,57
2650699,307,57
2650709,310,57
2650717,309,57
2650729,311,57
2650739,312,57
2650750,309,57
2650751,312,57
2650767,311,57
2650781,313,57
2650791,316,57
2650799,314,57
2650812,318,57
2650816,315,57
2650832,318,57
2650843,320,57
2650849,319,57
2650863,321,57
2650873,321,57
2650883,321,57
2650894,325,57
2650904,321,57
2650914,324,57
2650925,327,57
2650933,324,57
2650945,328,57
2650949,327,57
2650966,327,57
2650966,331,57
2650983,330,57
2650997,330,57
2651006,330,57
2651016,329,57
2651026,335,57
2651032,332,57
2651048,333,57
2651058,333,57
2651066,333,57
2651079,335,57
2651084,334,57
2651100,334,57
2651109,333,57
2651116,334,57
2651130,347,57
2651140,349,57
2651148,346,57
2651161,347,57
2651167,341,57
2651167,339,57
2651192,335,57
2651199,335,57
2651199,336,57
2651223,335,57
2651233,340,57
2651243,329,57
2651251,360,57
2651263,550,55
2651266,659,55
2651282,644,55
2651295,245,55
2651300,292,55
2651316,330,55
2651325,318,55
2651336,315,55
2651346,321,55
2651349,321,55
2651366,320,55
2651366,326,55
2651382,328,55
2651397,331,55
2651408,332,55
2651417,334,55
2651417,341,55
2651438,338,55
2651448,343,55
2651459,350,55
2651467,349,55
2651479,358,55
2651490,367,55
2651500,370,55
2651510,381,55
2651515,386,55
2651531,395,55
2651541,401,55
2651550,399,55
2651550,398,55
2651565,390,55
2651582,369,55
2651592,351,55
2651599,330,55
2651613,319,55
2651624,309,55
2651634,303,55
2651644,305,55
2651649,302,55
2651664,305,55
2651669,307,55
2651683,307,55
2651695,308,55
2651706,309,55
2651716,308,55
2651716,314,55
2651735,310,55
2651746,312,55
2651756,312,55
2651767,312,55
2651774,313,55
2651788,313,55
2651798,311,55
2651807,315,55
2651819,309,55
2651822,312,55
2651839,314,55
2651843,307,55
2651856,316,55
2651870,315,55
2651880,315,55
2651890,314,55
2651890,315,55
2651905,318,55
2651921,313,55
2651932,320,55
2651940,318,55
2651952,316,55
2651957,322,55
2651972,319,55
2651983,318,55
2651989,323,55
2651989,323,55
2652006,323,55
2652023,326,55
2652031,324,55
2652040,325,55
2652055,326,55
2652065,327,55
2652073,330,55
2652080,327,55
2652089,328,55
2652107,332,55
2652116,327,55
2652123,331,55
2652137,330,55
2652147,329,55
2652156,333,55
2652168,331,55
2652174,334,55
2652184,333,55
2652199,333,55
2652209,334,55
2652219,330,55
2652229,336,55
2652239,334,55
2652250,331,55
2652256,338,55
2652270,334,55
2652281,335,55
2652289,333,55
2652302,343,55
2652311,350,55
2652322,345,55
2652332,348,55
2652339,346,55
2652353,334,55
2652363,335,55
2652373,337,55
2652373,333,55
2652391,339,55
2652404,335,55
2652406,328,55
2652423,339,55
2652432,515,54
2652445,659,54
2652456,658,54
2652466,282,54
2652473,265,54
2652486,326,54
2652497,321,54
2652507,314,54
2652517,315,54
2652522,321,54
2652537,324,54
2652548,325,54
2652556,333,54
2652568,330,54
2652579,334,54
2652589,334,54
2652591,342,54
2652607,346,54
2652620,347,54
2652625,350,54
2652633,354,54
2652651,358,54
2652656,368,54
2652671,373,54
2652675,382,54
2652690,395,54
2652702,402,54
2652706,409,54
2652722,408,54
2652733,408,54
2652740,399,54
2652754,371,54
2652756,349,54
2652772,325,54
2652782,309,54
2652789,300,54
2652805,292,54
2652815,295,54
2652823,288,54
2652836,291,54
2652841,293,54
2652856,290,54
2652867,297,54
2652873,301,54
2652887,296,54
2652897,298,54
2652906,303,54
2652918,303,54
2652924,301,54
2652935,305,54
2652949,302,54
2652956,304,54
2652969,301,54
2652980,303,54
2652989,302,54
2652999,298,54
2653007,301,54
2653020,300,54
2653031,300,54
2653040,303,54
2653051,303,54
2653062,303,54
2653072,303,54
2653082,303,54
2653089,305,54
2653102,303,54
2653107,303,54
2653123,308,54
2653134,307,54
2653142,307,54
2653154,306,54
2653156,307,54
2653173,311,54
2653182,308,54
2653189,313,54
2653205,311,54
2653206,316,54
2653222,316,54
2653236,312,54
2653247,318,54
2653257,318,54
2653267,314,54
2653274,318,54
2653288,319,54
2653297,319,54
2653306,322,54
2653310,320,54
2653323,325,54
2653339,331,54
2653339,336,54
2653357,337,54
2653370,330,54
2653381,327,54
2653389,325,54
2653401,323,54
2653411,324,54
2653422,324,54
2653432,323,54
2653440,330,54
2653452,313,54
2653456,375,54
2653473,620,55
2653483,659,55
2653490,555,55
2653504,209,55
2653513,302,55
2653523,317,55
2653534,305,55
2653539,310,55
2653555,309,55
2653565,311,55
2653572,317,55
2653586,316,55
2653592,321,55
2653606,323,55
2653617,325,55
2653623,331,55
2653637,332,55
2653641,334,55
2653657,339,55
2653668,341,55
2653672,347,55
2653689,355,55
2653699,358,55
2653707,369,55
2653720,377,55
2653729,388,55
2653739,398,55
2653750,401,55
2653759,405,55
2653770,392,55
2653780,375,55
2653789,358,55
2653801,332,55
2653811,316,55
2653822,305,55
2653823,297,55
2653840,298,55
2653852,295,55
2653856,296,55
2653873,298,55
2653884,296,55
2653890,301,55
2653904,300,55
2653915,302,55
2653923,307,55
2653935,305,55
2653945,305,55
2653956,307,55
2653966,307,55
2653973,309,55
2653986,309,55
2653997,308,55
2654007,311,55
2654017,308,55
2654023,311,55
2654038,307,55
2654048,311,55
2654056,307,55
2654068,306,55
2654079,315,55
2654089,310,55
2654091,312,55
2654107,312,55
2654120,311,55
2654123,315,55
2654140,317,55
2654151,312,55
2654161,321,55
2654171,317,55
2654180,317,55
2654190,320,55
2654202,317,55
2654207,324,55
2654222,321,55
2654233,322,55
2654239,325,55
2654254,324,55
2654263,326,55
2654272,325,55
2654284,326,55
2654295,330,55
2654304,327,55
2654315,326,55
2654322,334,55
2654336,331,55
2654341,329,55
2654356,332,55
2654366,329,55
2654375,335,55
2654387,334,55
2654389,334,55
2654406,339,55
2654406,333,55
2654422,335,55
2654439,337,55
2654449,335,55
2654459,337,55
2654469,337,55
2654479,340,55
2654489,339,55
2654500,334,55
2654508,340,55
2654508,345,55
2654524,354,55
2654540,350,55
2654540,348,55
2654555,345,55
2654572,339,55
2654582,334,55
2654590,340,55
2654603,334,55
2654613,335,55
2654622,340,55
2654633,330,55
2654643,352,55
2654654,518,54
2654664,658,54
2654675,656,54
2654685,277,54
2654690,275,54
2654705,336,54
2654716,317,54
2654723,313,54
2654736,318,54
2654740,320,54
2654756,323,54
2654768,326,54
2654772,325,54
2654788,331,54
2654790,331,54
2654807,338,54
2654818,338,54
2654823,343,54
2654839,348,54
2654850,349,54
2654857,354,54
2654870,358,54
2654872,364,54
2654889,372,54
2654891,376,54
2654909,392,54
2654921,394,54
2654932,401,54
2654940,409,54
2654953,405,54
2654956,396,54
2654973,378,54
2654983,353,54
2654990,337,54
2655004,320,54
2655013,309,54
2655023,311,54
2655034,302,54
2655039,303,54
2655055,305,54
2655066,303,54
2655073,309,54
2655086,306,54
2655096,309,54
2655107,311,54
2655116,310,54
2655123,313,54
2655137,308,54
2655148,311,54
2655156,315,54
2655168,309,54
2655175,309,54
2655188,313,54
2655199,311,54
2655205,315,54
2655219,310,54
2655230,311,54
2655239,314,54
2655250,315,54
2655259,314,54
2655271,314,54
2655281,315,54
2655290,315,54
2655290,312,54
2655312,320,54
2655322,316,54
2655332,320,54
2655339,321,54
2655352,317,54
2655357,323,54
2655372,322,54
2655384,318,54
2655389,323,54
2655404,324,54
2655406,322,54
2655425,323,54
2655435,324,54
2655446,329,54
2655456,328,54
2655466,325,54
2655473,329,54
2655485,328,54
2655493,326,54
2655507,330,54
2655517,329,54
2655523,333,54
2655538,329,54
2655548,328,54
2655556,332,54
2655568,331,54
2655579,332,54
2655589,335,54
2655600,331,54
2655606,332,54
2655621,335,54
2655630,346,54
2655640,354,54
2655651,343,54
2655661,342,54
2655672,340,54
2655674,330,54
2655689,333,54
2655703,330,54
2655710,332,54
2655722,332,54
2655733,334,54
2655743,326,54
2655753,341,54
2655763,527,54
2655773,659,54
2655783,656,54
2655790,252,54
2655790,265,54
2655815,321,54
2655823,315,54
2655835,311,54
2655840,317,54
2655856,316,54
2655867,318,54
2655877,323,54
2655887,322,54
2655897,325,54
2655905,331,54
2655918,332,54
2655923,335,54
2655939,338,54
2655949,340,54
2655956,349,54
2655969,352,54
2655974,356,54
2655989,360,54
2655999,371,54
2656006,377,54
2656006,385,54
2656023,393,54
2656039,399,54
2656052,399,54
2656062,402,54
2656072,387,54
2656082,364,54
2656091,344,54
2656091,322,54
2656113,307,54
2656122,297,54
2656134,287,54
2656145,288,54
2656154,292,54
2656165,288,54
2656174,294,54
2656185,295,54
2656195,293,54
2656206,299,54
2656216,296,54
2656223,303,54
2656236,299,54
2656247,300,54
2656257,303,54
2656267,303,54
2656273,302,54
2656288,300,54
2656292,299,54
2656307,301,54
2656307,301,54
2656323,301,54
2656339,305,54
2656350,299,54
2656356,300,54
2656370,298,54
2656380,302,54
2656390,304,54
2656401,303,54
2656406,301,54
2656421,304,54
2656432,307,54
2656440,306,54
2656443,306,54
2656456,307,54
2656472,310,54
2656483,307,54
2656489,309,54
2656489,311,54
2656505,312,54
2656523,313,54
2656534,315,54
2656539,316,54
2656554,316,54
2656565,316,54
2656573,317,54
2656586,316,54
2656593,315,54
2656606,326,54
2656606,319,54
2656624,324,54
2656637,323,54
2656648,318,54
2656656,324,54
2656669,325,54
2656678,325,54
2656688,327,54
2656699,328,54
2656709,327,54
2656719,326,54
2656724,332,54
2656740,331,54
2656746,327,54
2656756,343,54
2656756,348,54
2656773,338,54
2656789,341,54
2656802,334,54
2656812,333,54
2656822,331,54
2656832,329,54
2656841,330,54
2656841,330,54
2656863,330,54
2656873,323,54
2656884,330,54
2656894,475,54
2656904,658,54
2656915,657,54
2656924,320,54
2656935,250,54
2656945,327,54
2656955,317,54
2656966,310,54
2656973,315,54
2656986,315,54
2656997,317,54
2657007,320,54
2657017,321,54
2657022,328,54
2657038,329,54
2657042,328,54
2657057,335,54
2657069,336,54
2657079,343,54
2657089,348,54
2657099,348,54
2657110,354,54
2657121,359,54
2657123,363,54
2657140,376,54
2657151,380,54
2657156,390,54
2657172,396,54
2657182,400,54
2657189,399,54
2657202,391,54
2657213,372,54
2657222,357,54
2657233,334,54
2657239,317,54
2657254,309,54
2657263,306,54
2657273,300,54
2657284,301,54
2657295,300,54
2657304,301,54
2657315,303,54
2657323,307,54
2657336,307,54
2657342,309,54
2657356,309,54
2657366,307,54
2657373,311,54
2657387,311,54
2657389,310,54
2657406,313,54
2657418,312,54
2657425,309,54
2657439,311,54
2657449,309,54
2657459,310,54
2657470,309,54
2657480,309,54
2657488,311,54
2657499,309,54
2657506,313,54
2657520,312,54
2657531,313,54
2657539,313,54
2657552,314,54
2657562,313,54
2657573,320,54
2657582,318,54
2657589,317,54
2657602,319,54
2657613,320,54
2657623,323,54
2657634,318,54
2657644,323,54
2657654,326,54
2657665,321,54
2657674,324,54
2657684,326,54
2657695,324,54
2657706,327,54
2657708,325,54
2657724,326,54
2657736,329,54
2657747,326,54
2657756,327,54
2657767,329,54
2657778,329,54
2657787,329,54
2657798,329,54
2657807,332,54
2657819,332,54
2657829,332,54
2657839,337,54
2657850,334,54
2657857,335,54
2657871,337,54
2657881,335,54
2657890,335,54
2657900,339,54
2657911,352,54
2657921,351,54
2657932,347,54
2657939,343,54
2657952,342,54
2657956,334,54
2657973,338,54
2657983,337,54
2657991,335,54
2658003,336,54
2658007,335,54
2658024,327,54
2658034,386,54
2658045,626,53
2658055,659,53
2658066,565,53
2658072,216,53
2658086,313,53
2658092,330,53
2658106,317,53
2658116,318,53
2658122,318,53
2658137,320,53
2658148,321,53
2658156,328,53
2658168,328,53
2658174,331,53
2658184,334,53
2658199,332,53
2658206,340,53
2658219,341,53
2658229,346,53
2658239,351,53
2658250,356,53
2658256,360,53
2658270,371,53
2658281,371,53
2658289,386,53
2658302,390,53
2658312,399,53
2658322,406,53
2658332,404,53
2658341,408,53
2658341,391,53
2658357,371,53
2658373,348,53
2658384,324,53
2658389,315,53
2658404,306,53
2658415,296,53
2658422,302,53
2658435,298,53
2658440,297,53
2658456,303,53
2658466,299,53
2658472,305,53
2658486,307,53
2658497,302,53
2658507,305,53
2658508,302,53
2658524,309,53
2658538,309,53
2658548,306,53
2658556,310,53
2658569,307,53
2658579,305,53
2658589,308,53
2658600,303,53
2658606,308,53
2658621,306,53
2658622,304,53
2658640,306,53
2658651,307,53
2658656,308,53
2658672,309,53
2658681,305,53
2658690,310,53
2658690,310,53
2658713,306,53
2658723,312,53
2658733,310,53
2658740,312,53
2658754,315,53
2658759,311,53
2658772,315,53
2658784,310,53
2658791,317,53
2658805,319,53
2658816,313,53
2658823,319,53
2658823,319,53
2658847,317,53
2658855,321,53
2658866,320,53
2658873,321,53
2658887,322,53
2658898,319,53
2658907,332,53
2658907,340,53
2658928,334,53
2658939,339,53
2658949,326,53
2658956,323,53
2658970,321,53
2658980,324,53
2658990,324,53
2659000,322,53
2659007,321,53
2659007,318,53
2659024,328,53
2659039,492,53
2659039,658,54
2659058,657,54
2659072,266,54
2659080,249,54
2659090,316,54
2659102,307,54
2659113,305,54
2659123,308,54
2659134,312,54
2659144,312,54
2659154,316,54
2659165,317,54
2659174,320,54
2659185,324,54
2659189,325,54
2659206,329,54
2659206,332,54
2659224,340,54
2659232,342,54
2659247,346,54
2659257,349,54
2659267,354,54
2659277,368,54
2659288,375,54
2659298,381,54
2659307,391,54
2659319,397,54
2659329,395,54
2659339,398,54
2659350,383,54
2659356,363,54
2659371,342,54
2659374,319,54
2659391,305,54
2659401,294,54
2659406,290,54
2659422,294,54
2659432,292,54
2659440,292,54
2659453,292,54
2659463,290,54
2659472,300,54
2659483,295,54
2659490,301,54
2659504,302,54
2659514,299,54
2659523,304,54
2659523,305,54
2659541,304,54
2659549,306,54
2659565,303,54
2659573,306,54
2659586,307,54
2659591,301,54
2659606,307,54
2659606,305,54
2659622,305,54
2659633,306,54
2659640,307,54
2659656,311,54
2659668,310,54
2659673,304,54
2659689,312,54
2659689,311,54
2659707,311,54
2659720,314,54
2659730,314,54
2659740,314,54
2659750,319,54
2659756,314,54
2659770,318,54
2659772,319,54
2659790,320,54
2659802,323,54
2659806,320,54
2659822,323,54
2659832,322,54
2659841,325,54
2659841,327,54
2659863,326,54
2659872,330,54
2659884,330,54
2659890,329,54
2659905,330,54
2659915,331,54
2659924,330,54
2659930,332,54
2659945,329,54
2659956,335,54
2659966,330,54
2659974,330,54
2659987,340,54
2659997,344,54
2660005,346,54
2660017,348,54
2660023,339,54
2660038,336,54
2660040,332,54
2660057,334,54
2660069,334,54
2660073,328,54
2660089,336,54
2660100,331,54
2660106,331,54
2660106,452,54
2660131,658,54
2660139,658,54
2660151,377,54
2660161,237,54
2660172,330,54
2660179,317,54
2660189,312,54
2660202,318,54
2660206,314,54
2660223,320,54
2660234,320,54
2660240,326,54
2660254,328,54
2660258,327,54
2660272,334,54
2660284,336,54
2660295,337,54
2660305,343,54
2660315,346,54
2660322,351,54
2660337,355,54
2660345,358,54
2660355,367,54
2660366,369,54
2660373,382,54
2660387,390,54
2660392,394,54
2660406,398,54
2660418,399,54
2660424,394,54
2660439,377,54
2660449,357,54
2660456,340,54
2660470,324,54
2660480,308,54
2660489,307,54
2660500,301,54
2660507,302,54
2660520,303,54
2660532,305,54
2660541,306,54
2660541,307,54
2660562,309,54
2660572,312,54
2660582,308,54
2660591,310,54
2660602,312,54
2660613,309,54
2660623,313,54
2660634,313,54
2660640,311,54
2660655,312,54
2660665,310,54
2660675,309,54
2660684,312,54
2660696,309,54
2660706,310,54
2660716,309,54
2660724,312,54
2660736,318,54
2660739,310,54
2660756,314,54
2660768,317,54
2660773,316,54
2660788,318,54
2660798,316,54
2660807,317,54
2660819,322,54
2660823,317,54
2660839,321,54
2660842,321,54
2660855,321,54
2660871,325,54
2660880,322,54
2660890,323,54
2660901,327,54
2660911,323,54
2660922,327,54
2660932,326,54
2660939,327,54
2660939,329,54
2660963,325,54
2660972,329,54
2660983,328,54
2660990,328,54
2660990,333,54
2661006,328,54
2661023,330,54
2661032,330,54
2661045,329,54
2661055,336,54
2661066,331,54
2661073,331,54
2661086,337,54
2661092,330,54
2661107,333,54
2661117,343,54
2661127,347,54
2661137,348,54
2661148,347,54
2661156,342,54
2661168,336,54
2661178,331,54
2661188,335,54
2661199,334,54
2661206,331,54
2661220,338,54
2661229,325,54
2661240,340,54
2661250,497,54
2661255,658,53
2661271,657,53
2661272,295,53
2661290,256,53
2661302,333,53
2661306,317,53
2661322,315,53
2661332,317,53
2661340,320,53
2661352,324,53
2661355,321,53
2661373,325,53
2661384,327,53
2661390,332,53
2661405,340,53
2661415,335,53
2661425,341,53
2661435,347,53
2661440,345,53
2661455,354,53
2661466,360,53
2661473,360,53
2661487,373,53
2661497,379,53
2661506,390,53
2661518,395,53
2661524,399,53
2661538,406,53
2661542,406,53
2661558,399,53
2661569,382,53
2661579,359,53
2661588,337,53
2661591,320,53
2661607,311,53
2661620,305,53
2661624,299,53
2661640,300,53
2661651,302,53
2661655,300,53
2661672,301,53
2661682,303,53
2661689,304,53
2661702,305,53
2661706,305,53
2661722,308,53
2661734,306,53
2661742,309,53
2661754,309,53
2661764,309,53
2661774,306,53
2661785,309,53
2661792,304,53
2661805,309,53
2661815,308,53
2661823,308,53
2661836,311,53
2661845,306,53
2661856,311,53
2661866,309,53
2661872,312,53
2661886,312,53
2661898,312,53
2661906,314,53
2661918,314,53
2661928,313,53
2661939,317,53
2661949,316,53
2661956,317,53
2661970,315,53
2661973,318,53
2661989,319,53
2661989,320,53
2662006,320,53
2662020,321,53
2662031,321,53
2662041,325,53
2662052,325,53
2662056,321,53
2662072,324,53
2662082,326,53
2662092,324,53
2662092,328,53
2662107,327,53
2662122,325,53
2662131,330,53
2662140,339,53
2662155,344,53
2662156,340,53
2662173,339,53
2662185,333,53
2662190,327,53
2662206,327,53
2662216,324,53
2662225,328,53
2662237,328,53
2662247,329,53
2662256,323,53
2662258,329,53
2662273,488,53
2662288,659,54
2662298,658,54
2662306,280,54
2662319,247,54
2662329,316,54
2662339,312,54
2662350,308,54
2662356,310,54
2662370,316,54
2662375,322,54
2662390,321,54
2662401,320,54
2662411,322,54
2662422,330,54
2662432,330,54
2662441,332,54
2662453,337,54
2662456,338,54
2662473,343,54
2662483,346,54
2662490,352,54
2662500,360,54
2662514,365,54
2662523,374,54
2662535,381,54
2662545,388,54
2662555,394,54
2662566,399,54
2662572,396,54
2662586,387,54
2662595,366,54
2662606,340,54
2662616,319,54
2662623,301,54
2662632,297,54
2662648,289,54
2662656,282,54
2662668,287,54
2662673,281,54
2662688,288,54
2662691,289,54
2662706,290,54
2662706,294,54
2662723,297,54
2662739,299,54
2662750,297,54
2662757,296,54
2662771,301,54
2662772,300,54
2662789,299,54
2662802,299,54
2662812,297,54
2662823,300,54
2662832,300,54
2662841,299,54
2662852,298,54
2662863,302,54
2662872,300,54
2662884,303,54
2662894,303,54
2662905,300,54
2662915,303,54
2662924,306,54
2662935,305,54
2662945,305,54
2662955,306,54
2662959,309,54
2662975,308,54
2662987,311,54
2662998,311,54
2663007,311,54
2663007,313,54
2663023,315,54
2663033,316,54
2663041,318,54
2663057,311,54
2663068,319,54
2663078,318,54
2663089,320,54
2663091,322,54
2663106,319,54
2663106,320,54
2663124,324,54
2663140,324,54
2663151,322,54
2663157,323,54
2663172,323,54
2663182,328,54
2663189,329,54
2663189,325,54
2663210,328,54
2663223,328,54
2663234,335,54
2663241,341,54
2663241,347,54
2663264,342,54
2663273,340,54
2663284,332,54
2663295,332,54
2663305,332,54
2663316,331,54
2663323,331,54
2663336,330,54
2663343,330,54
2663355,322,54
2663366,357,54
2663373,548,54
2663387,659,54
2663397,638,54
2663406,228,54
2663419,288,54
2663423,326,54
2663439,312,54
2663450,313,54
2663455,314,54
2663460,321,54
2663479,319,54
2663490,322,54
2663501,327,54
2663507,327,54
2663521,331,54
2663531,334,54
2663539,335,54
2663552,342,54
2663557,342,54
2663572,348,54
2663582,351,54
2663591,356,54
2663603,365,54
2663614,369,54
2663623,377,54
2663634,389,54
2663643,392,54
2663655,398,54
2663665,403,54
2663674,398,54
2663684,391,54
2663695,374,54
2663706,353,54
2663716,331,54
2663723,316,54
2663736,308,54
2663747,308,54
2663757,303,54
2663767,303,54
2663773,304,54
2663789,305,54
2663798,307,54
2663806,308,54
2663819,309,54
2663829,311,54
2663839,311,54
2663842,313,54
2663857,311,54
2663857,312,54
2663873,313,54
2663889,311,54
2663889,312,54
2663905,312,54
2663921,312,54
2663932,313,54
2663942,311,54
2663942,310,54
2663956,313,54
2663973,310,54
2663984,313,54
2663989,316,54
2664004,313,54
2664014,317,54
2664024,316,54
2664034,318,54
2664042,319,54
2664055,318,54
2664066,320,54
2664073,317,54
2664085,320,54
2664096,321,54
2664106,323,54
2664116,323,54
2664123,319,54
2664132,325,54
2664142,327,54
2664156,322,54
2664168,330,54
2664179,326,54
2664189,327,54
2664199,330,54
2664207,327,54
2664220,331,54
2664229,328,54
2664239,330,54
2664251,333,54
2664257,332,54
2664271,335,54
2664281,334,54
2664292,333,54
2664302,337,54
2664307,333,54
2664322,337,54
2664330,335,54
2664342,334,54
2664353,338,54
2664364,344,54
2664373,349,54
2664382,348,54
2664390,348,54
2664405,341,54
2664415,340,54
2664424,331,54
2664435,335,54
2664446,333,54
2664455,335,54
2664466,338,54
2664476,331,54
2664487,342,54
2664497,496,54
2664507,658,54
2664518,658,54
2664523,308,54
2664538,261,54
2664543,336,54
2664557,320,54
2664568,317,54
2664579,322,54
2664589,317,54
2664600,327,54
2664610,328,54
2664620,329,54
2664628,331,54
2664639,334,54
2664647,340,54
2664661,337,54
2664672,341,54
2664681,347,54
2664690,348,54
2664702,357,54
2664706,359,54
2664723,366,54
2664733,377,54
2664743,380,54
2664753,393,54
2664764,400,54
2664773,404,54
2664784,411,54
2664793,408,54
2664804,402,54
2664815,386,54
2664823,360,54
2664836,344,54
2664846,326,54
2664856,311,54
2664867,301,54
2664873,298,54
2664882,297,54
2664897,302,54
2664907,305,54
2664918,303,54
2664928,305,54
2664938,305,54
2664949,307,54
2664955,308,54
2664969,307,54
2664980,309,54
2664990,311,54
2665000,311,54
2665006,307,54
2665020,309,54
2665031,307,54
2665039,311,54
2665050,307,54
2665056,308,54
2665072,307,54
2665083,311,54
2665089,309,54
2665102,311,54
2665113,312,54
2665123,308,54
2665129,312,54
2665144,311,54
2665155,315,54
2665165,314,54
2665173,313,54
2665185,317,54
2665189,318,54
2665206,312,54
2665216,318,54
2665222,316,54
2665236,317,54
2665244,319,54
2665255,318,54
2665268,319,54
2665278,323,54
2665288,321,54
2665298,321,54
2665307,323,54
2665319,322,54
2665328,320,54
2665339,325,54
2665344,333,54
2665356,338,54
2665371,335,54
2665380,337,54
2665390,327,54
2665401,325,54
2665406,322,54
2665422,323,54
2665432,324,54
2665441,321,54
2665453,324,54
2665455,313,54
2665473,372,54
2665483,630,55
2665489,659,55
2665503,543,55
2665514,198,55
2665522,293,55
2665535,316,55
2665544,306,55
2665555,308,55
2665565,308,55
2665573,312,55
2665586,319,55
2665596,317,55
2665606,321,55
2665616,328,55
2665625,327,55
2665632,326,55
2665648,335,55
2665657,335,55
2665668,340,55
2665679,348,55
2665688,350,55
2665699,353,55
2665708,366,55
2665708,369,55
2665724,380,55
2665739,389,55
2665751,396,55
2665756,402,55
2665756,402,55
2665781,394,55
2665789,378,55
2665802,355,55
2665806,331,55
2665822,311,55
2665832,298,55
2665841,291,55
2665844,284,55
2665864,284,55
2665872,286,55
2665884,286,55
2665894,288,55
2665904,291,55
2665915,294,55
2665924,292,55
2665935,299,55
2665946,298,55
2665955,294,55
2665958,301,55
2665975,302,55
2665987,297,55
2665997,300,55
2666006,300,55
2666018,303,55
2666023,301,55
2666039,301,55
2666044,300,55
2666056,298,55
2666068,301,55
2666080,303,55
2666090,299,55
2666100,306,55
2666106,303,55
2666120,300,55
2666130,308,55
2666140,305,55
2666151,307,55
2666161,310,55
2666172,304,55
2666182,310,55
2666190,311,55
2666202,310,55
2666213,315,55
2666222,311,55
2666233,312,55
2666243,315,55
2666254,314,55
2666258,316,55
2666272,318,55
2666284,316,55
2666290,319,55
2666305,317,55
2666316,320,55
2666322,317,55
2666336,324,55
2666345,323,55
2666356,322,55
2666366,326,55
2666374,324,55
2666387,326,55
2666398,325,55
2666405,325,55
2666419,329,55
2666428,337,55
2666439,338,55
2666449,342,55
2666456,342,55
2666470,337,55
2666480,329,55
2666490,326,55
2666500,332,55
2666511,331,55
2666521,326,55
2666531,334,55
2666541,321,55
2666545,342,55
2666562,519,55
2666573,658,55
2666574,655,55
2666590,264,55
2666602,272,55
2666614,331,55
2666623,311,55
2666631,310,55
2666640,313,55
2666646,315,55
2666656,318,55
2666673,319,55
2666685,321,55
2666690,325,55
2666705,326,55
2666706,330,55
2666723,331,55
2666736,337,55
2666747,339,55
2666756,343,55
2666756,347,55
2666774,355,55
2666788,359,55
2666798,367,55
2666806,373,55
2666818,384,55
2666822,391,55
2666840,393,55
2666846,400,55
2666855,400,55
2666871,390,55
2666877,375,55
2666889,350,55
2666901,333,55
2666911,319,55
2666922,307,55
2666932,305,55
2666940,304,55
2666953,301,55
2666964,303,55
2666972,300,55
2666983,304,55
2666994,302,55
2667005,307,55
2667014,310,55
2667023,306,55
2667033,308,55
2667039,312,55
2667055,309,55
2667055,308,55
2667072,306,55
2667082,311,55
2667096,311,55
2667106,308,55
2667113,312,55
2667127,313,55
2667131,309,55
2667147,313,55
2667158,312,55
2667164,314,55
2667178,312,55
2667188,314,55
2667197,314,55
2667197,314,55
2667214,319,55
2667230,320,55
2667240,321,55
2667247,320,55
2667260,319,55
2667271,321,55
2667280,324,55
2667291,320,55
2667297,322,55
2667297,327,55
2667323,325,55
2667330,325,55
2667343,327,55
2667347,328,55
2667363,330,55
2667374,326,55
2667381,331,55
2667394,331,55
2667405,334,55
2667414,334,55
2667425,331,55
2667435,334,55
2667445,336,55
2667448,335,55
2667465,336,55
2667477,337,55
2667481,335,55
2667497,336,55
2667508,338,55
2667514,340,55
2667528,338,55
2667538,338,55
2667548,341,55
2667549,342,55
2667564,340,55
2667575,340,55
2667589,337,55
2667597,346,55
2667609,352,55
2667620,348,55
2667630,356,55
2667637,349,55
2667648,338,55
2667662,344,55
2667672,337,55
2667680,340,55
2667692,338,55
2667703,335,55
2667713,340,55
2667723,332,55
2667731,433,55
2667744,658,55
2667752,659,55
2667764,478,55
2667775,223,55
2667782,324,55
2667790,329,55
2667805,316,55
2667813,323,55
2667813,319,55
2667833,320,55
2667840,328,55
2667857,329,55
2667863,332,55
2667863,336,55
2667882,336,55
2667898,341,55
2667908,343,55
2667914,346,55
2667929,351,55
2667939,352,55
2667948,362,55
2667960,366,55
2667964,370,55
2667980,384,55
2667983,390,55
2667997,396,55
2668011,405,55
2668014,409,55
2668031,412,55
2668041,407,55
2668048,391,55
2668062,372,55
2668072,350,55
2668083,331,55
2668093,316,55
2668097,305,55
2668113,302,55
2668119,297,55
2668131,302,55
2668144,301,55
2668154,301,55
2668163,303,55
2668175,307,55
2668180,300,55
2668187,307,55
2668206,309,55
2668214,307,55
2668226,308,55
2668231,303,55
2668247,307,55
2668257,309,55
2668264,308,55
2668278,309,55
2668286,302,55
2668298,309,55
2668309,307,55
2668319,303,55
2668330,310,55
2668339,306,55
2668348,308,55
2668359,313,55
2668371,307,55
2668380,312,55
2668385,311,55
2668398,308,55
2668412,309,55
2668413,313,55
2668430,314,55
2668440,315,55
2668448,309,55
2668463,318,55
2668473,318,55
2668481,316,55
2668494,317,55
2668498,318,55
2668514,321,55
2668525,321,55
2668534,323,55
2668534,321,55
2668549,321,55
2668565,325,55
2668565,327,55
2668581,324,55
2668597,326,55
2668607,323,55
2668613,332,55
2668628,346,55
2668631,338,55
2668648,341,55
2668658,334,55
2668664,328,55
2668679,327,55
2668688,325,55
2668698,325,55
2668710,327,55
2668714,324,55
2668730,326,55
2668737,314,55
2668749,400,55
2668749,657,56
2668771,659,56
2668781,471,56
2668792,200,56
2668799,306,56
2668812,318,56
2668823,307,56
2668832,308,56
2668843,314,56
2668849,313,56
2668864,317,56
2668864,321,56
2668880,325,56
2668894,328,56
2668905,330,56
2668914,330,56
2668925,335,56
2668931,336,56
2668941,343,56
2668956,343,56
2668965,352,56
2668965,358,56
2668981,363,56
2668996,371,56
2668998,382,56
2669015,391,56
2669028,401,56
2669036,402,56
2669047,407,56
2669059,400,56
2669065,375,56
2669079,357,56
2669089,333,56
2669098,311,56
2669109,304,56
2669115,296,56
2669130,293,56
2669141,288,56
2669149,289,56
2669161,294,56
2669167,292,56
2669181,298,56
2669192,299,56
2669202,296,56
2669213,301,56
2669223,301,56
2669231,301,56
2669244,308,56
2669254,304,56
2669264,308,56
2669275,306,56
2669281,303,56
2669295,306,56
2669305,304,56
2669314,308,56
2669325,309,56
2669336,306,56
2669346,310,56
2669357,309,56
2669364,311,56
2669377,312,56
2669387,310,56
2669398,315,56
2669408,314,56
2669414,314,56
2669429,315,56
2669439,314,56
2669447,315,56
2669460,317,56
2669465,318,56
2669472,318,56
2669490,319,56
2669498,317,56
2669511,324,56
2669517,318,56
2669531,320,56
2669539,322,56
2669552,321,56
2669562,324,56
2669564,322,56
2669581,325,56
2669593,327,56
2669598,322,56
2669614,327,56
2669623,325,56
2669630,326,56
2669644,329,56
2669655,321,56
2669665,327,56
2669665,328,56
2669681,324,56
2669696,327,56
2669706,331,56
2669714,345,56
2669727,344,56
2669731,338,56
2669747,337,56
2669758,332,56
2669764,326,56
2669778,328,56
2669788,327,56
2669799,327,56
2669809,328,56
2669819,325,56
2669830,316,56
2669831,363,56
2669849,566,55
2669860,658,55
2669871,621,55
2669880,222,55
2669891,291,55
2669897,320,55
2669912,311,55
2669922,305,55
2669932,311,55
2669942,313,55
2669951,315,55
2669963,321,55
2669973,318,55
2669980,322,55
2669993,330,55
2669997,329,55
2670014,330,55
2670025,337,55
2670030,338,55
2670045,344,55
2670055,344,55
2670063,352,55
2670075,361,55
2670081,366,55
2670097,375,55
2670097,385,55
2670114,389,55
2670114,399,55
2670137,397,55
2670148,398,55
2670158,390,55
2670164,369,55
2670179,347,55
2670189,329,55
2670198,312,55
2670209,306,55
2670219,299,55
2670230,301,55
2670232,302,55
2670248,300,55
2670251,303,55
2670271,301,55
2670281,304,55
2670292,307,55
2670297,301,55
2670312,307,55
2670322,310,55
2670330,306,55
2670343,312,55
2670351,310,55
2670364,308,55
2670365,308,55
2670381,306,55
2670394,306,55
2670405,309,55
2670415,306,55
2670425,310,55
2670431,311,55
2670446,309,55
2670456,310,55
2670464,310,55
2670464,315,55
2670484,310,55
2670497,315,55
2670497,314,55
2670513,313,55
2670528,316,55
2670538,317,55
2670549,317,55
2670559,319,55
2670564,317,55
2670579,320,55
2670583,320,55
2670598,322,55
2670598,323,55
2670614,323,55
2670630,324,55
2670641,325,55
2670651,323,55
2670662,327,55
2670672,326,55
2670682,325,55
2670692,331,55
2670703,324,55
2670713,328,55
2670714,331,55
2670730,329,55
2670744,330,55
2670751,332,55
2670764,336,55
2670775,333,55
2670782,333,55
2670786,335,55
2670798,335,55
2670815,333,55
2670825,334,55
2670836,329,55
2670846,338,55
2670857,350,55
2670863,352,55
2670863,348,55
2670881,347,55
2670897,341,55
2670897,339,55
2670914,332,55
2670914,333,55
2670939,333,55
2670948,335,55
2670960,335,55
2670969,328,55
2670980,339,55
2670991,493,55
2670997,659,55
2670997,658,55
2671014,320,55
2671031,252,55
2671042,334,55
2671051,320,55
2671063,320,55
2671064,317,55
2671081,318,55
2671093,325,55
2671097,327,55
2671114,331,55
2671114,335,55
2671130,335,55
2671144,337,55
2671151,339,55
2671164,340,55
2671176,349,55
2671181,353,55
2671186,358,55
2671206,361,55
2671214,366,55
2671227,377,55
2671231,385,55
2671247,395,55
2671258,403,55
2671265,405,55
2671278,415,55
2671288,411,55
2671299,404,55
2671309,388,55
2671319,365,55
2671329,343,55
2671333,327,55
2671348,306,55
2671360,310,55
2671371,302,55
2671380,301,55
2671390,303,55
2671398,300,55
2671412,305,55
2671423,305,55
2671431,303,55
2671442,309,55
2671453,308,55
2671462,311,55
2671464,311,55
2671480,306,55
2671490,310,55
2671497,309,55
2671514,309,55
2671525,311,55
2671531,309,55
2671545,310,55
2671553,307,55
2671564,307,55
2671575,311,55
2671581,310,55
2671596,305,55
2671608,313,55
2671614,312,55
2671628,310,55
2671637,309,55
2671648,313,55
2671658,312,55
2671668,312,55
2671679,313,55
2671680,313,55
2671698,312,55
2671710,317,55
2671714,316,55
2671730,316,55
2671738,320,55
2671751,314,55
2671761,319,55
2671771,322,55
2671781,317,55
2671788,318,55
2671796,323,55
2671812,321,55
2671814,322,55
2671831,321,55
2671843,320,55
2671853,322,55
2671863,323,55
2671874,327,55
2671882,336,55
2671894,344,55
2671905,338,55
2671914,333,55
2671926,329,55
2671931,327,55
2671946,327,55
2671952,322,55
2671963,325,55
2671977,327,55
2671987,326,55
2671997,321,55
2672008,322,55
2672016,462,55
2672029,659,55
2672037,658,55
2672046,331,55
2672053,229,55
2672063,317,55
2672078,312,55
2672089,309,55
2672091,308,55
2672108,314,55
2672108,314,55
2672124,318,55
2672141,326,55
2672151,326,55
2672157,327,55
2672172,329,55
2672181,333,55
2672191,338,55
2672203,340,55
2672213,344,55
2672223,349,55
2672234,353,55
2672243,360,55
2672254,369,55
2672264,377,55
2672274,388,55
2672285,398,55
2672292,403,55
2672306,409,55
2672316,409,55
2672325,400,55
2672337,377,55
2672342,350,55
2672357,332,55
2672367,308,55
2672374,302,55
2672388,293,55
2672398,292,55
2672408,289,55
2672418,289,55
2672425,290,55
2672439,293,55
2672442,291,55
2672458,296,55
2672470,296,55
2672480,300,55
2672491,301,55
2672491,298,55
2672508,303,55
2672522,300,55
2672532,303,55
2672542,300,55
2672552,301,55
2672562,301,55
2672573,301,55
2672579,300,55
2672591,302,55
2672603,302,55
2672608,299,55
2672624,302,55
2672634,302,55
2672641,301,55
2672655,305,55
2672665,302,55
2672674,308,55
2672685,305,55
2672691,307,55
2672706,310,55
2672716,309,55
2672725,311,55
2672737,312,55
2672744,311,55
2672757,313,55
2672758,313,55
2672774,315,55
2672789,313,55
2672791,319,55
2672808,319,55
2672819,317,55
2672828,317,55
2672839,322,55
2672851,318,55
2672860,318,55
2672870,321,55
2672881,323,55
2672891,324,55
2672901,322,55
2672911,326,55
2672921,324,55
2672932,321,55
2672942,326,55
2672952,326,55
2672963,324,55
2672974,332,55
2672984,327,55
2672993,328,55
2672993,330,55
2673009,344,55
2673025,348,55
2673035,339,55
2673042,339,55
2673055,335,55
2673066,330,55
2673074,330,55
2673087,330,55
2673097,328,55
2673107,331,55
2673117,329,55
2673124,322,55
2673138,359,55
2673141,559,55
2673157,659,55
2673157,642,55
2673175,235,55
2673188,291,55
2673199,324,55
2673208,310,55
2673220,310,55
2673230,312,55
2673241,318,55
2673245,318,55
2673258,322,55
2673258,325,55
2673275,323,55
2673291,328,55
2673291,333,55
2673309,333,55
2673323,338,55
2673332,337,55
2673341,347,55
2673353,351,55
2673358,354,55
2673374,363,55
2673385,370,55
2673392,378,55
2673392,385,55
2673416,390,55
2673425,401,55
2673435,400,55
2673446,402,55
2673456,394,55
2673467,374,55
2673474,357,55
2673488,336,55
2673493,317,55
2673508,312,55
2673518,302,55
2673524,301,55
2673539,303,55
2673549,301,55
2673558,302,55
2673569,303,55
2673577,304,55
2673583,307,55
2673600,306,55
2673608,308,55
2673608,309,55
2673624,306,55
2673642,311,55
2673651,310,55
2673657,311,55
2673671,306,55
2673682,309,55
2673692,308,55
2673702,311,55
2673713,307,55
2673724,311,55
2673733,308,55
2673743,306,55
2673754,312,55
2673765,306,55
2673775,313,55
2673785,312,55
2673791,310,55
2673805,313,55
2673816,311,55
2673825,314,55
2673837,315,55
2673841,313,55
2673857,316,55
2673867,315,55
2673874,316,55
2673878,321,55
2673891,315,55
2673907,319,55
2673919,321,55
2673924,315,55
2673939,322,55
2673942,324,55
2673957,324,55
2673970,324,55
2673980,325,55
2673991,327,55
2673992,322,55
2674007,326,55
2674022,330,55
2674025,329,55
2674041,330,55
2674043,329,55
2674057,331,55
2674073,332,55
2674083,330,55
2674091,330,55
2674103,333,55
2674108,331,55
2674123,335,55
2674134,333,55
2674143,337,55
2674155,353,55
2674157,349,55
2674175,348,55
2674185,346,55
2674196,337,55
2674206,333,55
2674216,332,55
2674224,334,55
2674230,335,55
2674248,332,55
2674257,339,55
2674268,323,55
2674275,372,55
2674289,588,54
2674293,659,54
2674308,620,54
2674319,224,54
2674329,298,54
2674340,330,54
2674350,315,54
2674358,314,54
2674358,318,54
2674381,320,54
2674391,325,54
2674402,328,54
2674408,329,54
2674421,333,54
2674432,331,54
2674440,338,54
2674440,340,54
2674455,341,54
2674473,347,54
2674482,351,54
2674493,355,54
2674498,365,54
2674515,364,54
2674525,373,54
2674534,382,54
2674546,391,54
2674556,399,54
2674564,401,54
2674576,407,54
2674582,406,54
2674597,395,54
2674607,382,54
2674614,358,54
2674614,335,54
2674631,322,54
2674647,310,54
2674656,306,54
2674665,304,54
2674679,304,54
2674689,303,54
2674697,302,54
2674710,303,54
2674720,308,54
2674731,307,54
2674741,310,54
2674747,309,54
2674761,311,54
2674772,317,54
2674782,311,54
2674788,310,54
2674798,315,54
2674812,309,54
2674823,308,54
2674831,312,54
2674844,311,54
2674847,313,54
2674864,308,54
2674874,313,54
2674881,313,54
2674895,307,54
2674897,310,54
2674913,315,54
2674926,313,54
2674935,315,54
2674947,317,54
2674956,317,54
2674964,312,54
2674977,316,54
2674987,321,54
2674999,317,54
2675008,321,54
2675018,321,54
2675028,321,54
2675039,325,54
2675048,317,54
2675059,323,54
2675069,324,54
2675080,323,54
2675083,324,54
2675099,324,54
2675099,325,54
2675115,331,54
2675130,329,54
2675141,336,54
2675147,329,54
2675162,327,54
2675167,335,54
2675182,332,54
2675192,350,54
2675198,352,54
2675213,345,54
2675224,345,54
2675231,335,54
2675245,334,54
2675247,335,54
2675264,328,54
2675275,330,54
2675281,335,54
2675289,333,54
2675306,322,54
2675314,368,54
2675326,623,55
2675337,659,55
2675346,590,55
2675357,204,55
2675367,298,55
2675378,323,55
2675382,314,55
2675397,315,55
2675409,315,55
2675417,321,55
2675428,322,55
2675440,329,55
2675447,328,55
2675460,329,55
2675469,334,55
2675480,334,55
2675490,344,55
2675501,343,55
2675511,345,55
2675522,352,55
2675530,354,55
2675542,365,55
2675552,367,55
2675562,372,55
2675573,387,55
2675583,390,55
2675583,398,55
2675599,406,55
2675614,407,55
2675614,407,55
2675635,391,55
2675640,364,55
2675648,344,55
2675664,323,55
2675676,304,55
2675686,296,55
2675696,290,55
2675698,288,55
2675713,289,55
2675727,288,55
2675737,291,55
2675747,291,55
2675757,292,55
2675765,296,55
2675778,294,55
2675789,298,55
2675799,295,55
2675809,302,55
2675815,301,55
2675829,297,55
2675839,300,55
2675847,298,55
2675860,297,55
2675871,301,55
2675880,298,55
2675892,302,55
2675898,303,55
2675913,299,55
2675922,302,55
2675931,302,55
2675935,300,55
2675947,305,55
2675963,302,55
2675974,305,55
2675981,305,55
2675994,308,55
2676005,309,55
2676015,306,55
2676025,308,55
2676035,310,55
2676045,310,55
2676047,312,55
2676064,310,55
2676076,316,55
2676083,314,55
2676097,312,55
2676107,316,55
2676114,315,55
2676128,318,55
2676132,317,55
2676148,317,55
2676158,320,55
2676164,320,55
2676178,320,55
2676189,324,55
2676198,338,55
2676210,338,55
2676216,336,55
2676231,331,55
2676231,325,55
2676247,323,55
2676261,320,55
2676272,325,55
2676280,323,55
2676292,324,55
2676299,326,55
2676312,312,55
2676323,356,55
2676331,574,55
2676344,658,55
2676354,621,55
2676364,213,55
2676374,286,55
2676381,320,55
2676395,304,55
2676405,308,55
2676414,306,55
2676414,313,55
2676432,318,55
2676440,314,55
2676448,321,55
2676465,322,55
2676477,323,55
2676480,329,55
2676498,329,55
2676508,338,55
2676515,337,55
2676519,343,55
2676531,349,55
2676547,353,55
2676559,361,55
2676565,371,55
2676580,376,55
2676590,386,55
2676598,393,55
2676610,396,55
2676614,402,55
2676631,401,55
2676642,389,55
2676648,371,55
2676662,346,55
2676672,328,55
2676680,315,55
2676692,304,55
2676703,301,55
2676713,297,55
2676724,297,55
2676731,304,55
2676745,301,55
2676750,301,55
2676764,304,55
2676775,307,55
2676785,309,55
2676796,307,55
2676806,310,55
2676814,309,55
2676826,311,55
2676835,310,55
2676835,309,55
2676858,310,55
2676865,308,55
2676865,308,55
2676888,311,55
2676898,311,55
2676909,314,55
2676914,309,55
2676929,310,55
2676940,316,55
2676949,314,55
2676958,313,55
2676965,319,55
2676981,314,55
2676991,319,55
2676997,321,55
2677011,318,55
2677022,323,55
2677030,322,55
2677042,321,55
2677048,325,55
2677062,324,55
2677073,326,55
2677083,328,55
2677094,324,55
2677103,329,55
2677114,330,55
2677124,331,55
2677132,333,55
2677132,330,55
2677147,332,55
2677165,333,55
2677176,333,55
2677182,333,55
2677196,332,55
2677207,337,55
2677215,336,55
2677226,336,55
2677238,339,55
2677248,335,55
2677258,338,55
2677268,340,55
2677278,333,55
2677289,339,55
2677299,335,55
2677300,338,55
2677315,339,55
2677315,330,55
2677340,345,55
2677348,354,55
2677360,351,55
2677364,349,55
2677380,341,55
2677390,337,55
2677398,336,55
2677412,332,55
2677414,334,55
2677431,333,55
2677442,332,55
2677447,332,55
2677463,322,55
2677474,427,55
2677481,658,54
2677495,659,54
2677500,479,54
2677514,216,54
2677525,316,54
2677535,322,54
2677546,309,54
2677556,312,54
2677565,314,54
2677576,317,54
2677587,321,54
2677597,321,54
2677607,328,54
2677614,330,54
2677628,327,54
2677638,332,54
2677647,335,54
2677658,340,54
2677664,344,54
2677679,344,54
2677690,352,54
2677698,354,54
2677710,363,54
2677720,372,54
2677730,378,54
2677740,385,54
2677747,396,54
2677761,398,54
2677771,402,54
2677781,400,54
2677792,382,54
2677799,364,54
2677813,341,54
2677815,323,54
2677831,309,54
2677844,299,54
2677853,298,54
2677864,293,54
2677864,292,54
2677881,296,54
2677895,296,54
2677898,297,54
2677914,296,54
2677926,297,54
2677932,299,54
2677937,303,54
2677948,303,54
2677965,304,54
2677977,300,54
2677982,303,54
2677998,301,54
2678008,303,54
2678014,304,54
2678029,298,54
2678036,302,54
2678048,303,54
2678059,301,54
2678070,304,54
2678080,304,54
2678085,307,54
2678098,307,54
2678098,306,54
2678121,307,54
2678130,312,54
2678140,310,54
2678147,311,54
2678159,311,54
2678165,311,54
2678181,315,54
2678192,308,54
2678203,316,54
2678213,313,54
2678223,312,54
2678231,320,54
2678245,314,54
2678254,321,54
2678264,318,54
2678275,322,54
2678285,323,54
2678296,319,54
2678306,327,54
2678314,329,54
2678327,322,54
2678334,329,54
2678347,327,54
2678357,329,54
2678364,328,54
2678378,329,54
2678388,328,54
2678397,328,54
2678408,327,54
2678414,327,54
2678428,323,54
2678439,330,54
2678448,327,54
2678459,327,54
2678465,330,54
2678481,328,54
2678491,328,54
2678497,341,54
2678512,345,54
2678522,342,54
2678531,342,54
2678542,334,54
2678552,334,54
2678562,329,54
2678573,328,54
2678582,329,54
2678594,329,54
2678604,332,54
2678615,326,54
2678615,338,54
2678631,481,54
2678645,658,55
2678655,656,55
2678665,284,55
2678676,254,55
2678685,327,55
2678696,313,55
2678706,310,55
2678715,312,55
2678727,312,55
2678738,322,55
2678747,320,55
2678758,324,55
2678765,326,55
2678778,325,55
2678789,334,55
2678797,333,55
2678810,335,55
2678815,344,55
2678831,343,55
2678840,346,55
2678847,352,55
2678860,355,55
2678864,364,55
2678880,372,55
2678892,373,55
2678898,381,55
2678913,386,55
2678916,390,55
2678932,390,55
2678943,387,55
2678948,377,55
2678959,360,55
2678974,336,55
2678981,325,55
2678994,315,55
2679005,308,55
2679014,306,55
2679025,301,55
2679035,302,55
2679046,304,55
2679055,304,55
2679064,303,55
2679077,309,55
2679083,309,55
2679097,304,55
2679107,308,55
2679114,309,55
2679114,304,55
2679133,313,55
2679148,309,55
2679158,305,55
2679166,307,55
2679178,310,55
2679190,309,55
2679197,306,55
2679210,308,55
2679214,309,55
2679230,312,55
2679241,307,55
2679248,313,55
2679261,311,55
2679265,314,55
2679281,308,55
2679286,314,55
2679300,312,55
2679313,316,55
2679323,314,55
2679330,315,55
2679343,317,55
2679354,316,55
2679364,316,55
2679374,316,55
2679382,317,55
2679395,319,55
2679405,318,55
2679416,320,55
2679425,322,55
2679432,320,55
2679447,320,55
2679456,317,55
2679464,322,55
2679477,322,55
2679488,320,55
2679497,324,55
2679497,322,55
2679515,321,55
2679529,323,55
2679531,332,55
2679548,341,55
2679560,342,55
2679565,339,55
2679580,337,55
2679590,332,55
2679599,327,55
2679599,318,55
2679614,326,55
2679631,324,55
2679642,325,55
2679648,327,55
2679662,323,55
2679664,367,55
2679683,553,54
2679692,657,54
2679698,511,54
2679713,202,54
2679724,293,54
2679731,321,54
2679744,311,54
2679747,312,54
2679765,312,54
2679775,307,54
2679781,325,54
2679796,324,54
2679800,323,54
2679815,334,54
2679815,333,54
2679831,339,54
2679847,335,54
2679858,338,54
2679864,348,54
2679878,345,54
2679887,350,54
2679897,356,54
2679909,362,54
2679914,366,54
2679929,369,54
2679939,378,54
2679948,383,54
2679960,383,54
2679970,389,54
2679980,384,54
2679990,383,54
2679998,369,54
2680012,345,54
2680022,337,54
2680031,316,54
2680042,306,54
2680049,319,54
2680062,300,54
2680074,310,54
2680081,306,54
2680094,309,54
2680098,305,54
2680114,311,54
2680124,311,54
2680131,311,54
2680145,314,54
2680148,318,54
2680164,315,54
2680176,316,54
2680184,318,54
2680197,314,54
2680206,315,54
2680215,315,54
2680227,312,54
2680231,308,54
2680248,318,54
2680258,308,54
2680265,299,54
2680279,323,54
2680289,307,54
2680297,319,54
2680310,314,54
2680314,316,54
2680331,314,54
2680333,315,54
2680348,317,54
2680360,319,54
2680364,318,54
2680382,324,54
2680388,321,54
2680397,320,54
2680412,324,54
2680422,324,54
2680432,322,54
2680442,322,54
2680453,322,54
2680463,322,54
2680474,323,54
2680481,325,54
2680495,324,54
2680500,330,54
2680514,342,54
2680522,338,54
2680535,344,54
2680545,332,54
2680556,347,54
2680565,335,54
2680576,327,54
2680587,319,54
2680597,325,54
2680598,326,54
2680614,324,54
2680628,329,54
2680637,325,54
2680647,353,54
2680658,516,55
2680664,657,55
2680679,564,55
2680690,213,55
2680697,281,55
2680710,316,55
2680716,314,55
2680731,310,55
2680741,319,55
2680751,307,55
2680762,329,55
2680772,313,55
2680781,326,55
2680788,327,55
2680797,332,55
2680812,336,55
2680823,331,55
2680831,339,55
2680843,338,55
2680848,347,55
2680864,347,55
2680874,349,55
2680884,359,55
2680895,361,55
2680906,366,55
2680915,374,55
2680926,378,55
2680936,382,55
2680947,383,55
2680956,378,55
2680965,373,55
2680965,361,55
2680988,351,55
2680998,330,55
2681008,323,55
2681015,306,55
2681029,303,55
2681039,299,55
2681047,308,55
2681060,310,55
2681064,310,55
2681080,301,55
2681090,307,55
2681098,314,55
2681111,310,55
2681121,310,55
2681130,314,55
2681142,312,55
2681147,317,55
2681162,317,55
2681172,316,55
2681182,316,55
2681192,316,55
2681204,313,55
2681213,314,55
2681215,312,55
2681234,315,55
2681245,313,55
2681248,315,55
2681264,313,55
2681275,312,55
2681280,312,55
2681296,310,55
2681306,325,55
2681314,321,55
2681314,317,55
2681331,322,55
2681346,324,55
2681358,322,55
2681366,326,55
2681378,324,55
2681388,325,55
2681398,322,55
2681408,328,55
2681419,328,55
2681429,326,55
2681440,328,55
2681448,327,55
2681461,324,55
2681470,334,55
2681481,339,55
2681481,342,55
2681497,342,55
2681512,344,55
2681522,339,55
2681530,330,55
2681542,326,55
2681549,328,55
2681562,332,55
2681565,335,55
2681581,335,55
2681594,332,55
2681597,333,55
2681614,422,55
2681624,637,56
2681631,654,56
2681645,322,56
2681655,243,56
2681665,328,56
2681676,328,56
2681686,321,56
2681697,324,56
2681697,328,56
2681714,330,56
2681727,330,56
2681738,335,56
2681748,339,56
2681748,341,56
2681765,344,56
2681779,346,56
2681789,348,56
2681799,349,56
2681804,356,56
2681819,358,56
2681830,361,56
2681833,367,56
2681848,370,56
2681861,376,56
2681863,381,56
2681881,385,56
2681892,391,56
2681902,395,56
2681913,390,56
2681922,391,56
2681930,383,56
2681943,365,56
2681953,351,56
2681963,338,56
2681974,327,56
2681982,322,56
2681995,319,56
2682000,313,56
2682015,321,56
2682025,316,56
2682031,320,56
2682046,326,56
2682056,312,56
2682064,325,56
2682077,320,56
2682080,325,56
2682097,326,56
2682107,323,56
2682114,324,56
2682128,324,56
2682138,327,56
2682148,323,56
2682148,324,56
2682164,328,56
2682179,325,56
2682189,324,56
2682197,327,56
2682210,318,56
2682220,322,56
2682231,320,56
2682241,320,56
2682247,318,56
2682262,320,56
2682272,316,56
2682281,319,56
2682293,322,56
2682298,322,56
2682313,323,56
2682323,321,56
2682333,323,56
2682341,326,56
2682354,340,56
2682365,336,56
2682365,337,56
2682384,338,56
2682394,330,56
2682405,323,56
2682414,322,56
2682426,323,56
2682431,316,56
2682447,322,56
2682456,312,56
2682464,321,56
2682464,312,56
2682481,372,56
2682497,586,57
2682508,657,57
2682514,394,57
2682514,210,57
2682532,297,57
2682548,311,57
2682560,306,57
2682565,310,57
2682580,309,57
2682590,312,57
2682598,317,57
2682611,319,57
2682621,319,57
2682631,320,57
2682641,323,57
2682651,321,57
2682662,329,57
2682672,329,57
2682681,334,57
2682681,335,57
2682697,340,57
2682713,349,57
2682724,357,57
2682731,361,57
2682744,358,57
2682750,363,57
2682765,369,57
2682775,379,57
2682782,387,57
2682796,372,57
2682799,358,57
2682814,348,57
2682814,331,57
2682837,322,57
2682847,315,57
2682858,302,57
2682867,309,57
2682878,302,57
2682887,305,57
2682897,303,57
2682897,302,57
2682915,306,57
2682929,300,57
2682939,300,57
2682947,299,57
2682961,297,57
2682966,306,57
2682981,300,57
2682990,306,57
2682997,303,57
2683012,303,57
2683015,313,57
2683032,302,57
2683042,298,57
2683053,293,57
2683063,313,57
2683073,304,57
2683080,308,57
2683094,311,57
2683104,312,57
2683115,311,57
2683115,311,57
2683131,311,57
2683144,313,57
2683155,312,57
2683166,316,57
2683166,316,57
2683182,315,57
2683192,313,57
2683197,314,57
2683214,315,57
2683227,314,57
2683231,324,57
2683247,332,57
2683258,328,57
2683265,332,57
2683265,326,57
2683289,321,57
2683297,312,57
2683297,317,57
2683315,316,57
2683330,308,57
2683339,316,57
2683348,316,57
2683361,311,57
2683365,331,57
2683382,476,57
2683392,657,58
2683398,581,58
2683412,224,58
2683417,267,58
2683431,316,58
2683443,307,58
2683453,306,58
2683464,312,58
2683474,315,58
2683480,321,58
2683495,317,58
2683500,317,58
2683515,322,58
2683515,322,58
2683532,326,58
2683546,326,58
2683556,327,58
2683566,334,58
2683577,334,58
2683581,336,58
2683598,346,58
2683608,351,58
2683614,361,58
2683628,358,58
2683634,368,58
2683647,371,58
2683659,377,58
2683666,377,58
2683666,376,58
2683681,372,58
2683697,361,58
2683711,345,58
2683720,333,58
2683731,321,58
2683740,313,58
2683747,308,58
2683762,304,58
2683766,304,58
2683781,305,58
2683792,303,58
2683799,305,58
2683799,307,58
2683824,302,58
2683833,308,58
2683844,307,58
2683854,311,58
2683864,304,58
2683875,307,58
2683881,309,58
2683894,306,58
2683906,304,58
2683915,307,58
2683926,303,58
2683935,306,58
2683946,305,58
2683948,308,58
2683967,309,58
2683967,308,58
2683982,310,58
2683998,308,58
2684009,303,58
2684015,310,58
2684029,308,58
2684039,310,58
2684047,309,58
2684060,310,58
2684070,311,58
2684081,310,58
2684090,313,58
2684098,312,58
2684111,310,58
2684122,318,58
2684131,316,58
2684142,323,58
2684152,323,58
2684163,329,58
2684167,332,58
2684182,327,58
2684193,331,58
2684198,325,58
2684214,318,58
2684214,320,58
2684231,322,58
2684244,321,58
2684248,322,58
2684265,325,58
2684275,322,58
2684281,325,58
2684286,422,58
2684298,636,60
2684315,651,60
2684315,313,60
2684331,237,60
2684347,306,60
2684348,306,60
2684367,301,60
2684367,302,60
2684383,305,60
2684398,305,60
2684398,308,60
2684415,312,60
2684415,315,60
2684440,316,60
2684448,321,60
2684448,323,60
2684467,332,60
2684481,330,60
2684491,333,60
2684497,338,60
2684497,342,60
2684522,347,60
2684531,354,60
2684540,359,60
2684553,365,60
2684563,370,60
2684573,372,60
2684581,378,60
2684594,379,60
2684604,380,60
2684615,369,60
2684615,357,60
2684631,343,60
2684644,332,60
2684648,316,60
2684664,316,60
2684675,314,60
2684680,311,60
2684696,314,60
2684707,313,60
2684714,314,60
2684727,313,60
2684738,315,60
2684748,312,60
2684751,314,60
2684768,315,60
2684778,313,60
2684787,311,60
2684797,310,60
2684810,312,60
2684820,315,60
2684831,313,60
2684840,308,60
2684848,308,60
2684861,304,60
2684871,307,60
2684881,306,60
2684885,308,60
2684898,306,60
2684912,309,60
2684917,308,60
2684933,313,60
2684943,311,60
2684948,312,60
2684963,316,60
2684974,317,60
2684980,316,60
2684995,317,60
2684997,320,60
2685014,322,60
2685025,321,60
2685031,323,60
2685046,333,60
2685049,338,60
2685064,339,60
2685068,336,60
2685082,330,60
2685097,326,60
2685108,323,60
2685114,327,60
2685114,326,60
2685132,326,60
2685148,329,60
2685158,327,60
2685168,321,60
2685179,395,60
2685190,640,60
2685198,659,60
2685210,481,60
2685220,204,60
2685231,313,60
2685241,322,60
2685248,312,60
2685261,317,60
2685268,320,60
2685280,320,60
2685293,323,60
2685303,326,60
2685313,331,60
2685323,331,60
2685331,334,60
2685344,333,60
2685354,345,60
2685364,347,60
2685374,350,60
2685382,350,60
2685382,358,60
2685406,360,60
2685415,365,60
2685426,373,60
2685431,388,60
2685447,379,60
2685457,392,60
2685466,391,60
2685477,384,60
2685487,387,60
2685498,380,60
2685508,358,60
2685518,333,60
2685529,325,60
2685539,309,60
2685548,307,60
2685560,304,60
2685569,303,60
2685580,302,60
2685582,303,60
2685598,307,60
2685611,305,60
2685615,308,60
2685632,308,60
2685641,309,60
2685649,309,60
2685662,306,60
2685669,308,60
2685682,311,60
2685693,310,60
2685697,310,60
2685714,308,60
2685714,310,60
2685731,306,60
2685740,308,60
2685755,311,60
2685764,308,60
2685775,310,60
2685781,308,60
2685796,309,60
2685798,309,60
2685815,313,60
2685827,311,60
2685834,314,60
2685848,310,60
2685858,314,60
2685864,323,60
2685879,328,60
2685888,328,60
2685897,333,60
2685909,320,60
2685914,317,60
2685930,316,60
2685940,318,60
2685948,318,60
2685960,319,60
2685971,313,60
2685980,318,60
2685991,321,60
2686000,444,60
2686000,656,62
2686022,656,62
2686031,311,62
2686043,240,62
2686053,323,62
2686063,305,62
2686074,305,62
2686082,302,62
2686093,314,62
2686098,314,62
2686114,307,62
2686125,313,62
2686132,321,62
2686135,313,62
2686156,321,62
2686164,327,62
2686176,331,62
2686187,335,62
2686197,335,62
2686207,341,62
2686215,351,62
2686227,346,62
2686238,351,62
2686248,359,62
2686250,366,62
2686266,376,62
2686280,389,62
2686289,365,62
2686299,389,62
2686310,371,62
2686314,376,62
2686330,384,62
2686341,341,62
2686348,331,62
2686361,308,62
2686371,299,62
2686382,309,62
2686392,306,62
2686402,310,62
2686414,309,62
2686422,306,62
2686431,303,62
2686443,313,62
2686447,312,62
2686463,306,62
2686474,306,62
2686481,309,62
2686495,310,62
2686497,307,62
2686514,312,62
2686525,310,62
2686531,312,62
2686546,314,62
2686547,313,62
2686564,313,62
2686578,309,62
2686586,314,62
2686597,317,62
2686608,323,62
2686614,303,62
2686628,319,62
2686639,326,62
2686647,303,62
2686659,322,62
2686666,314,62
2686670,331,62
2686690,295,62
2686697,331,62
2686711,340,62
2686717,329,62
2686730,338,62
2686741,335,62
2686748,320,62
2686761,334,62
2686772,322,62
2686781,326,62
2686793,325,62
2686799,327,62
2686813,330,62
2686814,319,62
2686832,349,62
2686844,531,64
2686854,659,64
2686865,646,64
2686875,236,64
2686882,293,64
2686886,307,64
2686906,303,64
2686914,306,64
2686927,292,64
2686932,298,64
2686946,314,64
2686957,317,64
2686966,322,64
2686978,305,64
2686988,326,64
2686998,332,64
2687000,314,64
2687014,333,64
2687029,331,64
2687031,331,64
2687048,348,64
2687060,341,64
2687065,349,64
2687080,348,64
2687091,370,64
2687098,364,64
2687111,372,64
2687122,384,64
2687132,356,64
2687142,376,64
2687152,365,64
2687162,356,64
2687173,319,64
2687181,328,64
2687193,316,64
2687204,303,64
2687213,290,64
2687224,316,64
2687232,310,64
2687245,301,64
2687255,308,64
2687264,316,64
2687275,289,64
2687286,324,64
2687296,303,64
2687306,310,64
2687314,317,64
2687327,309,64
2687333,313,64
2687340,317,64
2687358,308,64
2687365,315,64
2687370,322,64
2687389,304,64
2687397,325,64
2687408,313,64
2687420,318,64
2687430,326,64
2687440,314,64
2687449,319,64
2687460,320,64
2687471,318,64
2687481,326,64
2687490,325,64
2687499,320,64
2687499,326,64
2687522,319,64
2687531,328,64
2687543,335,64
2687553,339,64
2687563,336,64
2687574,336,64
2687584,329,64
2687594,320,64
2687604,333,64
2687614,333,64
2687625,318,64
2687632,340,64
2687645,328,64
2687656,315,64
2687666,373,64
2687671,639,66
2687682,659,66
2687692,550,66
2687702,229,66
2687715,317,66
2687728,326,66
2687738,300,66
2687748,305,66
2687750,320,66
2687766,316,66
2687779,318,66
2687789,313,66
2687797,318,66
2687810,333,66
2687820,325,66
2687830,337,66
2687830,335,66
2687848,346,66
2687861,350,66
2687871,347,66
2687881,352,66
2687888,360,66
2687898,365,66
2687898,374,66
2687914,369,66
2687931,384,66
2687943,388,66
2687954,379,66
2687963,395,66
2687975,378,66
2687981,368,66
2687995,336,66
2687997,341,66
2688015,337,66
2688026,332,66
2688031,323,66
2688046,323,66
2688057,317,66
2688064,328,66
2688077,321,66
2688087,321,66
2688097,325,66
2688108,318,66
2688114,320,66
2688128,322,66
2688138,318,66
2688148,322,66
2688158,322,66
2688167,320,66
2688179,317,66
2688190,307,66
2688198,305,66
2688198,307,66
2688221,318,66
2688230,332,66
2688241,324,66
2688252,322,66
2688261,325,66
2688272,313,66
2688282,321,66
2688293,316,66
2688298,334,66
2688313,338,66
2688314,335,66
2688332,331,66
2688344,324,66
2688354,317,66
2688364,329,66
2688375,321,66
2688382,326,66
2688395,328,66
2688406,323,66
2688415,306,66
2688426,401,66
2688432,656,68
2688446,658,68
2688449,451,68
2688465,225,68
2688478,315,68
2688488,310,68
2688498,316,68
2688509,298,68
2688515,312,68
2688529,311,68
2688539,312,68
2688547,315,68
2688560,328,68
2688570,309,68
2688581,326,68
2688591,326,68
2688598,333,68
2688612,340,68
2688622,326,68
2688631,346,68
2688642,353,68
2688652,314,68
2688663,366,68
2688673,342,68
2688681,369,68
2688693,372,68
2688704,366,68
2688714,383,68
2688715,364,68
2688731,358,68
2688741,355,68
2688750,324,68
2688763,318,68
2688775,309,68
2688786,302,68
2688796,303,68
2688806,292,68
2688814,302,68
2688827,309,68
2688835,305,68
2688847,301,68
2688859,298,68
2688864,307,68
2688879,313,68
2688889,299,68
2688898,312,68
2688909,303,68
2688914,301,68
2688929,311,68
2688934,295,68
2688948,300,68
2688948,312,68
2688965,291,68
2688981,305,68
2688991,302,68
2688998,304,68
2689012,295,68
2689022,299,68
2689030,312,68
2689043,320,68
2689049,308,68
2689049,319,68
2689072,301,68
2689084,305,68
2689094,294,68
2689105,318,68
2689115,311,68
2689125,301,68
2689132,299,68
2689146,308,68
2689156,309,68
2689166,458,68
2689176,658,70
2689186,638,70
2689197,270,70
2689207,269,70
2689215,303,70
2689228,300,70
2689238,305,70
2689247,296,70
2689259,297,70
2689268,303,70
2689279,312,70
2689289,301,70
2689298,315,70
2689310,311,70
2689320,314,70
2689331,333,70
2689334,310,70
2689349,324,70
2689361,338,70
2689372,330,70
2689381,343,70
2689392,349,70
2689398,341,70
2689413,361,70
2689414,354,70
2689431,344,70
2689443,380,70
2689447,360,70
2689464,346,70
2689474,372,70
2689484,317,70
2689495,332,70
2689505,324,70
2689515,315,70
2689525,305,70
2689530,321,70
2689546,301,70
2689557,304,70
2689564,317,70
2689577,325,70
2689586,294,70
2689597,324,70
2689608,306,70
2689614,312,70
2689628,320,70
2689639,314,70
2689647,317,70
2689659,307,70
2689664,313,70
2689679,315,70
2689690,317,70
2689698,317,70
2689698,308,70
2689720,330,70
2689731,300,70
2689742,328,70
2689747,322,70
2689761,308,70
2689772,318,70
2689781,333,70
2689793,309,70
2689797,337,70
2689813,351,70
2689815,329,70
2689831,324,70
2689845,340,70
2689848,317,70
2689864,334,70
2689875,327,70
2689884,316,70
2689896,344,70
2689898,316,70
2689913,313,70
2689926,506,72
2689932,659,72
2689947,658,72
2689957,310,72
2689965,250,72
2689977,352,72
2689988,307,72
2689998,310,72
2689998,329,72
2690015,306,72
2690029,333,72
2690039,328,72
2690048,334,72
2690060,328,72
2690064,333,72
2690081,343,72
2690090,336,72
2690098,332,72
2690112,370,72
2690122,320,72
2690132,371,72
2690142,362,72
2690148,347,72
2690163,372,72
2690173,375,72
2690181,370,72
2690194,392,72
2690204,358,72
2690214,400,72
2690224,366,72
2690231,369,72
2690246,355,72
2690248,336,72
2690264,334,72
2690275,325,72
2690281,313,72
2690296,326,72
2690307,318,72
2690314,311,72
2690328,314,72
2690338,323,72
2690348,316,72
2690358,319,72
2690365,314,72
2690379,326,72
2690389,305,72
2690398,310,72
2690398,324,72
2690415,306,72
2690430,318,72
2690440,314,72
2690448,304,72
2690448,319,72
2690463,311,72
2690481,307,72
2690492,303,72
2690497,309,72
2690497,325,72
2690523,324,72
2690530,320,72
2690543,321,72
2690548,311,72
2690564,322,72
2690574,303,72
2690581,317,72
2690595,322,72
2690598,313,72
2690615,303,72
2690615,325,72
2690633,320,72
2690645,530,73
2690656,658,73
2690666,540,73
2690673,232,73
2690687,290,73
2690697,329,73
2690698,301,73
2690715,285,73
2690728,308,73
2690731,313,73
2690749,301,73
2690759,332,73
2690765,323,73
2690779,312,73
2690788,337,73
2690798,305,73
2690810,334,73
2690821,327,73
2690830,326,73
2690838,332,73
2690848,350,73
2690861,363,73
2690869,337,73
2690882,352,73
2690891,363,73
2690902,358,73
2690912,339,73
2690915,383,73
2690931,345,73
2690943,369,73
2690947,362,73
2690964,319,73
2690974,315,73
2690981,327,73
2690995,315,73
2691004,309,73
2691014,298,73
2691014,322,73
2691031,306,73
2691041,304,73
2691057,323,73
2691064,319,73
2691073,306,73
2691081,315,73
2691097,321,73
2691108,302,73
2691114,324,73
2691128,306,73
2691139,324,73
2691149,306,73
2691159,311,73
2691170,317,73
2691179,322,73
2691190,315,73
2691198,311,73
2691198,314,73
2691221,308,73
2691231,320,73
2691241,317,73
2691249,312,73
2691262,335,73
2691264,332,73
2691281,329,73
2691293,319,73
2691298,329,73
2691314,304,73
2691324,327,73
2691331,311,73
2691344,318,73
2691347,321,73
2691364,315,73
2691373,308,73
2691382,325,73
2691390,542,75
2691397,658,75
2691415,539,75
2691415,224,75
2691431,280,75
2691447,329,75
2691457,294,75
2691464,296,75
2691478,320,75
2691488,298,75
2691497,303,75
2691509,321,75
2691515,312,75
2691530,316,75
2691539,324,75
2691547,314,75
2691560,341,75
2691570,315,75
2691581,337,75
2691591,341,75
2691598,335,75
2691612,353,75
2691614,341,75
2691632,358,75
2691641,354,75
2691648,365,75
2691648,351,75
2691664,369,75
2691681,362,75
2691694,368,75
2691698,342,75
2691714,340,75
2691724,334,75
2691731,316,75
2691745,322,75
2691748,311,75
2691765,315,75
2691776,316,75
2691786,310,75
2691796,319,75
2691797,312,75
2691814,318,75
2691828,315,75
2691834,309,75
2691848,313,75
2691859,316,75
2691864,310,75
2691879,312,75
2691889,316,75
2691897,304,75
2691909,313,75
2691916,308,75
2691929,310,75
2691940,316,75
2691949,305,75
2691961,315,75
2691971,311,75
2691981,318,75
2691991,330,75
2692000,326,75
2692011,324,75
2692022,318,75
2692032,316,75
2692043,319,75
2692053,319,75
2692063,316,75
2692074,317,75
2692081,318,75
2692091,320,75
2692105,324,75
2692115,470,75
2692125,658,76
2692132,630,76
2692139,243,76
2692156,276,76
2692164,327,76
2692177,315,76
2692181,309,76
2692197,314,76
2692198,331,76
2692216,308,76
2692228,329,76
2692232,326,76
2692247,334,76
2692247,324,76
2692265,338,76
2692279,341,76
2692289,329,76
2692297,347,76
2692310,353,76
2692320,354,76
2692330,352,76
2692338,358,76
2692348,364,76
2692362,373,76
2692364,373,76
2692381,359,76
2692392,375,76
2692398,368,76
2692398,365,76
2692423,352,76
2692430,349,76
2692443,324,76
2692454,329,76
2692464,324,76
2692475,317,76
2692480,315,76
2692495,326,76
2692499,319,76
2692513,321,76
2692525,315,76
2692536,330,76
2692546,317,76
2692556,303,76
2692565,321,76
2692575,323,76
2692583,321,76
2692597,316,76
2692608,314,76
2692615,320,76
2692629,316,76
2692632,304,76
2692648,344,76
2692659,298,76
2692664,321,76
2692680,322,76
2692690,331,76
2692697,306,76
2692710,326,76
2692714,310,76
2692730,328,76
2692741,336,76
2692747,339,76
2692761,340,76
2692773,324,76
2692782,323,76
2692793,347,76
2692803,329,76
2692813,296,76
2692824,332,76
2692833,318,76
2692844,341,76
2692855,310,76
2692865,330,76
2692874,447,76
2692882,657,78
2692892,656,78
2692900,269,78
2692914,264,78
2692927,343,78
2692937,315,78
2692947,304,78
2692957,321,78
2692965,323,78
2692977,313,78
2692989,312,78
2692997,326,78
2692997,320,78
2693016,339,78
2693029,324,78
2693039,349,78
2693047,321,78
2693060,355,78
2693070,348,78
2693080,336,78
2693091,347,78
2693098,380,78
2693112,351,78
2693122,381,78
2693132,349,78
2693133,381,78
2693148,359,78
2693163,370,78
2693168,377,78
2693181,360,78
2693194,366,78
2693198,325,78
2693214,353,78
2693215,314,78
2693231,328,78
2693245,317,78
2693250,320,78
2693265,321,78
2693275,319,78
2693281,325,78
2693296,326,78
2693307,326,78
2693315,310,78
2693315,325,78
2693331,316,78
2693348,321,78
2693349,313,78
2693365,313,78
2693379,316,78
2693382,314,78
2693397,317,78
2693409,311,78
2693416,315,78
2693430,312,78
2693441,309,78
2693449,313,78
2693461,310,78
2693470,312,78
2693481,323,78
2693491,318,78
2693497,307,78
2693497,324,78
2693514,310,78
2693532,300,78
2693540,321,78
2693548,302,78
2693564,323,78
2693574,298,78
2693581,312,78
2693595,318,78
2693597,355,78
2693614,588,78
2693625,659,78
2693635,537,78
2693646,176,78
2693648,287,78
2693664,314,78
2693677,310,78
2693684,314,78
2693697,317,78
2693707,315,78
2693715,318,78
2693727,314,78
2693738,341,78
2693748,318,78
2693759,313,78
2693765,349,78
2693780,351,78
2693789,320,78
2693798,357,78
2693810,358,78
2693820,330,78
2693831,376,78
2693837,350,78
2693847,374,78
2693862,386,78
2693864,358,78
2693881,366,78
2693892,391,78
2693897,345,78
2693913,376,78
2693914,339,78
2693929,318,78
2693939,329,78
2693955,321,78
2693955,294,78
2693971,299,78
2693985,315,78
2693993,273,78
2694004,312,78
2694016,325,78
2694022,293,78
2694030,285,78
2694046,333,78
2694055,279,78
2694067,316,78
2694076,294,78
2694088,303,78
2694098,312,78
2694105,270,78
2694105,305,78
2694122,312,78
2694139,281,78
2694149,306,78
2694155,291,78
2694170,289,78
2694180,296,78
2694189,307,78
2694193,288,78
2694205,291,78
2694221,308,78
2694232,318,78
2694238,312,78
2694252,334,78
2694261,289,78
2694273,305,78
2694282,294,78
2694293,306,78
2694303,298,78
2694313,304,78
2694321,298,78
2694334,298,78
2694340,303,78
2694355,321,78
2694365,587,79
2694371,658,79
2694386,522,79
2694389,178,79
2694405,281,79
2694416,294,79
2694422,297,79
2694437,290,79
2694447,291,79
2694455,298,79
2694468,305,79
2694477,305,79
2694489,296,79
2694493,333,79
2694506,302,79
2694518,312,79
2694524,326,79
2694538,328,79
2694550,323,79
2694560,342,79
2694570,328,79
2694581,363,79
2694590,335,79
2694590,349,79
2694605,363,79
2694622,358,79
2694631,352,79
2694640,363,79
2694652,366,79
2694663,354,79
2694671,333,79
2694679,325,79
2694688,329,79
2694704,302,79
2694714,304,79
2694721,305,79
2694735,301,79
2694739,310,79
2694754,299,79
2694755,304,79
2694772,309,79
2694782,307,79
2694788,306,79
2694805,299,79
2694805,313,79
2694823,304,79
2694837,292,79
2694839,304,79
2694854,305,79
2694869,303,79
2694877,305,79
2694888,310,79
2694899,308,79
2694904,304,79
2694920,301,79
2694923,307,79
2694939,315,79
2694939,308,79
2694956,318,79
2694971,312,79
2694981,312,79
2694988,316,79
2695001,306,79
2695012,329,79
2695023,328,79
2695033,336,79
2695043,336,79
2695053,328,79
2695064,326,79
2695072,317,79
2695084,323,79
2695091,324,79
2695104,315,79
2695115,326,79
2695121,326,79
2695136,315,79
2695139,362,79
2695155,592,80
2695166,659,80
2695172,584,80
2695187,187,80
2695197,304,80
2695204,326,80
2695218,309,80
2695222,322,80
2695238,305,80
2695248,322,80
2695256,323,80
2695269,320,80
2695280,329,80
2695289,338,80
2695300,338,80
2695305,350,80
2695320,334,80
2695330,348,80
2695338,357,80
2695351,348,80
2695355,353,80
2695371,358,80
2695382,367,80
2695389,374,80
2695403,367,80
2695405,376,80
2695423,369,80
2695433,363,80
2695444,370,80
2695455,366,80
2695464,355,80
2695473,345,80
2695485,330,80
2695489,323,80
2695505,317,80
2695506,317,80
2695523,318,80
2695537,312,80
2695546,320,80
2695556,315,80
2695567,316,80
2695577,320,80
2695588,311,80
2695598,320,80
2695604,314,80
2695619,316,80
2695628,322,80
2695639,316,80
2695649,317,80
2695654,317,80
2695670,312,80
2695677,321,80
2695688,313,80
2695700,316,80
2695705,318,80
2695721,314,80
2695731,322,80
2695739,318,80
2695752,315,80
2695762,326,80
2695771,319,80
2695782,319,80
2695788,325,80
2695793,319,80
2695814,324,80
2695822,319,80
2695834,317,80
2695840,328,80
2695855,332,80
2695866,347,80
2695872,336,80
2695886,336,80
2695889,329,80
2695905,317,80
2695916,326,80
2695924,326,80
2695937,322,80
2695948,328,80
2695958,325,80
2695968,319,80
2695973,348,80
2695980,520,79
2695998,658,79
2696007,649,79
2696019,212,79
2696030,278,79
2696039,329,79
2696050,308,79
2696056,310,79
2696056,308,79
2696081,317,79
2696088,318,79
2696102,315,79
2696105,327,79
2696122,326,79
2696132,328,79
2696139,333,79
2696152,332,79
2696163,338,79
2696171,336,79
2696184,339,79
2696189,351,79
2696204,353,79
2696205,355,79
2696223,357,79
2696231,357,79
2696238,364,79
2696255,361,79
2696266,358,79
2696272,365,79
2696286,358,79
2696288,353,79
2696305,341,79
2696317,329,79
2696322,326,79
2696338,312,79
2696340,312,79
2696356,312,79
2696369,309,79
2696379,313,79
2696388,308,79
2696399,311,79
2696405,316,79
2696411,304,79
2696430,309,79
2696439,313,79
2696439,311,79
2696455,321,79
2696470,314,79
2696482,311,79
2696488,308,79
2696503,308,79
2696505,311,79
2696521,308,79
2696521,310,79
2696538,315,79
2696553,309,79
2696564,309,79
2696571,315,79
2696579,312,79
2696590,314,79
2696605,311,79
2696616,315,79
2696622,323,79
2696635,312,79
2696646,323,79
2696656,319,79
2696656,317,79
2696672,320,79
2696683,315,79
2696697,321,79
2696705,322,79
2696718,318,79
2696723,332,79
2696738,339,79
2696748,340,79
2696756,336,79
2696769,327,79
2696780,327,79
2696788,324,79
2696788,318,79
2696805,322,79
2696821,322,79
2696831,323,79
2696839,328,79
2696851,315,79
2696855,396,79
2696871,645,78
2696882,658,78
2696888,413,78
2696903,202,78
2696913,323,78
2696922,320,78
2696922,306,78
2696939,313,78
2696954,318,78
2696965,320,78
2696972,322,78
2696985,320,78
2696988,327,78
2697005,326,78
2697015,329,78
2697022,338,78
2697036,335,78
2697046,341,78
2697055,346,78
2697067,343,78
2697078,351,78
2697088,360,78
2697098,362,78
2697105,363,78
2697119,359,78
2697121,365,78
2697138,361,78
2697147,358,78
2697155,365,78
2697169,358,78
2697180,350,78
2697188,343,78
2697201,330,78
2697205,324,78
2697221,317,78
2697232,312,78
2697238,314,78
2697238,310,78
2697258,321,78
2697271,319,78
2697282,320,78
2697288,316,78
2697303,318,78
2697314,320,78
2697321,321,78
2697334,317,78
2697340,322,78
2697355,317,78
2697365,318,78
2697374,320,78
2697385,314,78
2697396,323,78
2697405,323,78
2697417,317,78
2697424,324,78
2697437,320,78
2697447,321,78
2697456,329,78
2697456,322,78
2697477,332,78
2697489,331,78
2697498,329,78
2697506,330,78
2697506,326,78
2697522,329,78
2697539,330,78
2697539,325,78
2697555,335,78
2697571,341,78
2697581,346,78
2697589,345,78
2697601,339,78
2697605,336,78
2697622,331,78
2697632,327,78
2697639,330,78
2697653,327,78
2697663,329,78
2697672,334,78
2697684,325,78
2697689,339,78
2697705,520,77
2697714,659,77
2697722,656,77
2697722,208,77
2697738,264,77
2697755,326,77
2697758,315,77
2697773,322,77
2697781,317,77
2697789,319,77
2697804,329,77
2697817,327,77
2697823,336,77
2697838,338,77
2697848,335,77
2697854,344,77
2697869,346,77
2697872,348,77
2697889,350,77
2697899,360,77
2697910,366,77
2697920,364,77
2697930,374,77
2697938,380,77
2697950,380,77
2697961,387,77
2697971,390,77
2697982,390,77
2697989,391,77
2698002,374,77
2698013,367,77
2698022,347,77
2698032,326,77
2698039,316,77
2698053,306,77
2698056,300,77
2698072,304,77
2698084,299,77
2698089,304,77
2698105,304,77
2698116,297,77
2698121,307,77
2698136,302,77
2698146,309,77
2698155,304,77
2698167,306,77
2698173,308,77
2698188,304,77
2698198,304,77
2698208,305,77
2698218,302,77
2698227,305,77
2698239,305,77
2698248,304,77
2698257,310,77
2698269,300,77
2698280,305,77
2698288,317,77
2698300,314,77
2698310,315,77
2698321,327,77
2698331,311,77
2698340,306,77
2698351,308,77
2698362,309,77
2698372,302,77
2698381,304,77
2698392,315,77
2698402,307,77
2698413,303,77
2698421,420,77
2698434,657,77
2698439,658,77
2698439,301,77
2698465,207,77
2698472,304,77
2698484,304,77
2698489,304,77
2698506,301,77
2698516,304,77
2698522,312,77
2698536,310,77
2698547,314,77
2698555,322,77
2698567,317,77
2698577,331,77
2698587,326,77
2698598,330,77
2698605,342,77
2698619,340,77
2698625,347,77
2698638,355,77
2698649,355,77
2698656,367,77
2698670,370,77
2698680,376,77
2698689,379,77
2698689,373,77
2698705,375,77
2698721,367,77
2698732,345,77
2698739,332,77
2698739,308,77
2698762,300,77
2698771,291,77
2698783,288,77
2698788,288,77
2698803,285,77
2698814,289,77
2698822,294,77
2698834,293,77
2698843,293,77
2698855,297,77
2698866,295,77
2698874,301,77
2698886,301,77
2698896,301,77
2698905,303,77
2698917,295,77
2698924,305,77
2698937,302,77
2698948,300,77
2698955,305,77
2698968,299,77
2698972,304,77
2698988,303,77
2698998,298,77
2699005,308,77
2699019,304,77
2699030,301,77
2699038,312,77
2699050,314,77
2699060,321,77
2699071,320,77
2699081,318,77
2699090,313,77
2699102,309,77
2699105,313,77
2699122,312,77
2699132,311,77
2699139,313,77
2699153,315,77
2699163,304,77
2699171,343,77
2699184,567,77
2699192,659,77
2699204,617,77
2699204,192,77
2699223,286,77
2699234,315,77
2699238,301,77
2699254,304,77
2699266,305,77
2699272,312,77
2699285,314,77
2699296,315,77
2699306,319,77
2699317,319,77
2699321,329,77
2699337,326,77
2699348,336,77
2699355,343,77
2699369,343,77
2699379,350,77
2699389,359,77
2699399,361,77
2699405,368,77
2699420,371,77
2699421,380,77
2699438,386,77
2699451,377,77
2699454,384,77
2699471,378,77
2699482,367,77
2699489,353,77
2699502,335,77
2699512,322,77
2699522,315,77
2699532,301,77
2699539,307,77
2699553,302,77
2699564,305,77
2699571,311,77
2699584,303,77
2699590,305,77
2699605,309,77
2699615,309,77
2699622,308,77
2699636,307,77
2699639,309,77
2699655,310,77
2699655,303,77
2699672,307,77
2699687,307,77
2699688,308,77
2699706,312,77
2699718,308,77
2699728,311,77
2699739,311,77
2699748,311,77
2699756,311,77
2699756,307,77
2699772,310,77
2699789,321,77
2699800,306,77
2699806,313,77
2699821,323,77
2699831,325,77
2699839,331,77
2699851,328,77
2699855,324,77
2699872,322,77
2699878,311,77
2699889,322,77
2699903,317,77
2699914,316,77
2699924,325,77
2699933,316,77
2699944,317,77
2699954,416,77
2699955,658,76
2699973,658,76
2699983,394,76
2699990,208,76
2700006,312,76
2700007,314,76
2700023,316,76
2700036,299,76
2700039,306,76
2700054,315,76
2700067,311,76
2700078,325,76
2700087,326,76
2700098,321,76
2700106,335,76
2700119,331,76
2700122,336,76
2700139,343,76
2700150,343,76
2700155,353,76
2700155,353,76
2700172,358,76
2700188,369,76
2700201,364,76
2700205,371,76
2700221,380,76
2700232,374,76
2700240,378,76
2700252,365,76
2700263,353,76
2700272,336,76
2700280,328,76
2700290,323,76
2700303,314,76
2700305,298,76
2700322,305,76
2700332,297,76
2700344,311,76
2700355,308,76
2700355,306,76
2700376,315,76
2700386,312,76
2700396,309,76
2700405,314,76
2700417,310,76
2700423,314,76
2700433,316,76
2700448,311,76
2700455,311,76
2700468,314,76
2700478,303,76
2700489,316,76
2700489,302,76
2700504,321,76
2700504,324,76
2700529,303,76
2700538,316,76
2700550,302,76
2700556,314,76
2700556,315,76
2700581,322,76
2700589,318,76
2700589,317,76
2700605,314,76
2700622,316,76
2700631,314,76
2700638,319,76
2700653,316,76
2700658,319,76
2700671,322,76
2700684,312,76
2700688,319,76
2700704,318,76
2700715,316,76
2700721,323,76
2700735,323,76
2700738,329,76
2700755,330,76
2700766,317,76
2700771,315,76
2700787,337,76
2700793,326,76
2700804,337,76
2700804,322,76
2700828,332,76
2700838,339,76
2700848,331,76
2700855,332,76
2700868,331,76
2700874,334,76
2700889,335,76
2700900,332,76
2700906,337,76
2700920,333,76
2700923,334,76
2700939,348,76
2700939,346,76
2700956,351,76
2700971,346,76
2700982,343,76
2700990,339,76
2701002,347,76
2701012,318,76
2701022,334,76
2701032,335,76
2701039,332,76
2701053,336,76
2701055,322,76
2701072,414,76
2701084,655,73
2701091,659,73
2701105,446,73
2701115,205,73
2701121,322,73
2701136,321,73
2701140,313,73
2701155,316,73
2701166,316,73
2701176,318,73
2701187,320,73
2701198,318,73
2701205,329,73
2701218,327,73
2701223,335,73
2701239,340,73
2701248,337,73
2701257,344,73
2701257,347,73
2701280,347,73
2701288,358,73
2701300,364,73
2701307,357,73
2701321,362,73
2701329,359,73
2701338,380,73
2701351,377,73
2701356,375,73
2701371,382,73
2701382,365,73
2701388,365,73
2701404,349,73
2701413,346,73
2701423,338,73
2701434,316,73
2701444,316,73
2701454,324,73
2701465,305,73
2701472,314,73
2701484,309,73
2701495,309,73
2701505,316,73
2701506,306,73
2701524,311,73
2701537,311,73
2701542,306,73
2701555,310,73
2701567,306,73
2701572,306,73
2701588,307,73
2701598,299,73
2701604,307,73
2701604,308,73
2701622,301,73
2701639,310,73
2701650,305,73
2701660,312,73
2701670,312,73
2701671,299,73
2701689,312,73
2701701,310,73
2701705,303,73
2701721,314,73
2701732,311,73
2701742,310,73
2701752,313,73
2701757,311,73
2701772,319,73
2701783,314,73
2701789,318,73
2701789,322,73
2701814,316,73
2701822,321,73
2701835,319,73
2701845,317,73
2701855,324,73
2701865,323,73
2701871,326,73
2701886,330,73
2701896,334,73
2701904,349,73
2701904,343,73
2701922,328,73
2701938,339,73
2701948,322,73
2701958,327,73
2701968,320,73
2701973,318,73
2701989,326,73
2701997,324,73
2702005,324,73
2702019,320,73
2702030,365,73
2702039,603,71
2702050,659,71
2702056,532,71
2702071,195,71
2702072,292,71
2702089,318,71
2702102,311,71
2702112,308,71
2702121,314,71
2702132,312,71
2702138,324,71
2702153,326,71
2702163,330,71
2702172,328,71
2702184,336,71
2702194,331,71
2702205,350,71
2702215,345,71
2702222,352,71
2702235,352,71
2702245,351,71
2702256,365,71
2702266,362,71
2702271,370,71
2702287,374,71
2702297,376,71
2702306,378,71
2702306,377,71
2702328,374,71
2702338,375,71
2702349,353,71
2702355,342,71
2702369,330,71
2702379,317,71
2702389,314,71
2702389,306,71
2702404,305,71
2702420,314,71
2702431,302,71
2702438,310,71
2702451,308,71
2702458,302,71
2702471,312,71
2702482,310,71
2702488,308,71
2702488,313,71
2702512,313,71
2702521,318,71
2702533,305,71
2702539,312,71
2702553,313,71
2702564,307,71
2702572,311,71
2702585,309,71
2702593,309,71
2702605,315,71
2702615,305,71
2702626,307,71
2702636,311,71
2702646,308,71
2702655,310,71
2702667,310,71
2702673,316,71
2702687,320,71
2702698,318,71
2702704,313,71
2702718,322,71
2702729,308,71
2702738,325,71
2702748,317,71
2702756,327,71
2702756,331,71
2702772,334,71
2702790,343,71
2702800,334,71
2702811,338,71
2702821,335,71
2702831,320,71
2702841,320,71
2702851,323,71
2702862,317,71
2702871,322,71
2702883,323,71
2702892,322,71
2702902,321,71
2702913,408,71
2702922,657,70
2702934,659,70
2702944,381,70
2702955,221,70
2702955,307,70
2702975,320,70
2702985,319,70
2702989,320,70
2703006,330,70
2703016,320,70
2703022,330,70
2703022,334,70
2703047,335,70
2703056,345,70
2703067,342,70
2703072,342,70
2703088,351,70
2703099,351,70
2703105,357,70
2703118,358,70
2703121,362,70
2703138,371,70
2703150,373,70
2703155,379,70
2703170,390,70
2703181,387,70
2703188,396,70
2703201,401,70
2703205,388,70
2703221,384,70
2703232,361,70
2703242,353,70
2703253,341,70
2703263,326,70
2703272,325,70
2703282,319,70
2703289,316,70
2703303,322,70
2703306,320,70
2703322,330,70
2703335,326,70
2703340,325,70
2703355,325,70
2703365,325,70
2703371,323,70
2703386,327,70
2703390,326,70
2703405,328,70
2703405,327,70
2703423,321,70
2703437,329,70
2703448,321,70
2703458,324,70
2703468,325,70
2703478,325,70
2703489,324,70
2703499,326,70
2703506,324,70
2703506,326,70
2703522,325,70
2703538,328,70
2703550,327,70
2703561,326,70
2703571,332,70
2703580,327,70
2703589,330,70
2703589,334,70
2703612,335,70
2703622,349,70
2703632,345,70
2703639,339,70
2703654,341,70
2703656,329,70
2703672,329,70
2703684,327,70
2703689,327,70
2703705,330,70
2703714,323,70
2703722,327,70
2703735,326,70
2703738,328,70
2703755,465,70
2703755,658,69
2703774,657,69
2703787,278,69
2703797,237,69
2703806,327,69
2703817,316,69
2703827,312,69
2703837,322,69
2703840,320,69
2703855,323,69
2703855,332,69
2703879,327,69
2703889,334,69
2703889,337,69
2703905,337,69
2703921,346,69
2703921,342,69
2703938,347,69
2703938,360,69
2703955,351,69
2703972,361,69
2703982,366,69
2703990,371,69
2704002,374,69
2704007,377,69
2704021,392,69
2704033,381,69
2704039,381,69
2704039,377,69
2704064,359,69
2704072,343,69
2704080,330,69
2704094,314,69
2704106,313,69
2704115,301,69
2704122,296,69
2704130,300,69
2704146,296,69
2704155,299,69
2704155,299,69
2704171,299,69
2704187,302,69
2704198,301,69
2704205,300,69
2704205,306,69
2704228,298,69
2704238,305,69
2704248,307,69
2704255,303,69
2704269,305,69
2704280,300,69
2704290,305,69
2704300,299,69
2704306,305,69
2704321,308,69
2704331,305,69
2704340,303,69
2704351,308,69
2704356,309,69
2704372,309,69
2704382,316,69
2704393,324,69
2704403,327,69
2704413,322,69
2704423,325,69
2704433,320,69
2704444,309,69
2704454,310,69
2704455,308,69
2704473,308,69
2704482,313,69
2704490,310,69
2704505,318,69
2704505,305,69
2704522,398,69
2704537,656,70
2704547,658,70
2704556,379,70
2704567,203,70
2704578,302,70
2704587,309,70
2704590,300,70
2704604,304,70
2704619,307,70
2704629,304,70
2704639,315,70
2704650,315,70
2704655,317,70
2704671,323,70
2704680,322,70
2704690,327,70
2704701,334,70
2704705,330,70
2704722,341,70
2704732,343,70
2704738,347,70
2704753,356,70
2704756,358,70
2704772,369,70
2704783,375,70
2704790,376,70
2704804,378,70
2704806,379,70
2704821,368,70
2704834,357,70
2704840,338,70
2704855,325,70
2704856,309,70
2704871,301,70
2704886,302,70
2704890,294,70
2704905,296,70
2704905,299,70
2704922,295,70
2704937,302,70
2704938,298,70
2704955,298,70
2704968,303,70
2704972,299,70
2704988,300,70
2704998,299,70
2705006,299,70
2705006,304,70
2705030,298,70
2705040,302,70
2705050,301,70
2705056,297,70
2705071,300,70
2705073,301,70
2705090,301,70
2705101,304,70
2705112,299,70
2705121,307,70
2705133,307,70
2705139,303,70
2705153,309,70
2705163,304,70
2705171,304,70
2705184,316,70
2705192,324,70
2705205,330,70
2705215,317,70
2705222,313,70
2705222,326,70
2705239,307,70
2705256,304,70
2705266,310,70
2705271,307,70
2705279,313,70
2705290,307,70
2705304,309,70
2705317,307,70
2705327,380,70
2705337,647,70
2705343,658,70
2705358,422,70
2705369,192,70
2705376,296,70
2705389,304,70
2705396,295,70
2705410,297,70
2705420,305,70
2705426,306,70
2705441,311,70
2705451,316,70
2705459,312,70
2705472,320,70
2705479,323,70
2705491,325,70
2705503,335,70
2705510,333,70
2705522,340,70
2705527,344,70
2705543,348,70
2705554,358,70
2705560,358,70
2705574,367,70
2705577,373,70
2705593,375,70
2705605,380,70
2705610,382,70
2705626,373,70
2705627,365,70
2705643,345,70
2705657,329,70
2705660,319,70
2705676,304,70
2705687,304,70
2705695,301,70
2705707,295,70
2705719,302,70
2705726,299,70
2705739,303,70
2705748,302,70
2705759,300,70
2705769,306,70
2705777,304,70
2705790,304,70
2705800,308,70
2705811,302,70
2705812,307,70
2705828,306,70
2705838,301,70
2705846,307,70
2705862,302,70
2705862,306,70
2705878,305,70
2705893,300,70
2705896,307,70
2705910,303,70
2705924,306,70
2705928,311,70
2705944,303,70
2705955,308,70
2705960,306,70
2705975,308,70
2705985,326,70
2705993,324,70
2706006,324,70
2706016,336,70
2706026,312,70
2706037,316,70
2706042,313,70
2706058,299,70
2706061,315,70
2706077,312,70
2706087,312,70
2706093,309,70
2706108,300,70
2706119,342,70
2706126,554,71
2706139,658,71
2706145,593,71
2706145,176,71
2706170,276,71
2706177,306,71
2706191,293,71
2706201,300,71
2706210,296,71
2706210,304,71
2706227,310,71
2706241,307,71
2706253,320,71
2706260,319,71
2706273,323,71
2706283,325,71
2706292,330,71
2706304,338,71
2706313,339,71
2706323,340,71
2706335,347,71
2706345,351,71
2706355,367,71
2706365,364,71
2706377,368,71
2706386,375,71
2706393,378,71
2706407,378,71
2706416,378,71
2706427,361,71
2706437,350,71
2706443,334,71
2706458,317,71
2706469,313,71
2706478,302,71
2706489,303,71
2706498,302,71
2706509,296,71
2706519,305,71
2706526,301,71
2706526,301,71
2706544,308,71
2706559,304,71
2706571,309,71
2706576,310,71
2706592,302,71
2706601,310,71
2706609,304,71
2706622,305,71
2706631,306,71
2706643,306,71
2706653,311,71
2706660,301,71
2706674,304,71
2706678,316,71
2706693,306,71
2706705,300,71
2706714,313,71
2706725,305,71
2706735,311,71
2706742,312,71
2706756,313,71
2706760,307,71
2706776,318,71
2706787,317,71
2706794,314,71
2706808,315,71
2706817,320,71
2706827,314,71
2706837,318,71
2706843,330,71
2706843,331,71
2706869,336,71
2706876,333,71
2706889,332,71
2706895,324,71
2706910,320,71
2706920,319,71
2706927,317,71
2706941,316,71
2706951,327,71
2706960,325,71
2706972,323,71
2706982,318,71
2706992,374,71
2707003,623,70
2707010,658,70
2707010,507,70
2707026,196,70
2707043,298,70
2707043,325,70
2707060,307,70
2707060,309,70
2707085,315,70
2707093,315,70
2707105,323,70
2707115,326,70
2707126,322,70
2707137,327,70
2707146,333,70
2707157,334,70
2707167,342,70
2707177,340,70
2707188,349,70
2707197,352,70
2707208,351,70
2707218,362,70
2707228,361,70
2707239,370,70
2707249,376,70
2707259,373,70
2707269,380,70
2707277,382,70
2707290,378,70
2707300,372,70
2707311,351,70
2707321,336,70
2707326,323,70
2707342,315,70
2707347,314,70
2707360,306,70
2707372,310,70
2707376,313,70
2707392,304,70
2707403,311,70
2707410,309,70
2707424,313,70
2707427,316,70
2707443,316,70
2707455,309,70
2707464,315,70
2707475,312,70
2707478,321,70
2707494,316,70
2707505,322,70
2707510,314,70
2707526,312,70
2707537,312,70
2707543,314,70
2707557,317,70
2707563,321,70
2707577,313,70
2707588,318,70
2707595,321,70
2707608,317,70
2707619,321,70
2707627,318,70
2707639,315,70
2707643,320,70
2707660,315,70
2707660,321,70
2707677,320,70
2707686,318,70
2707701,321,70
2707711,325,70
2707722,329,70
2707727,333,70
2707742,323,70
2707753,349,70
2707760,331,70
2707773,353,70
2707781,334,70
2707793,333,70
2707804,323,70
2707812,324,70
2707824,322,70
2707827,328,70
2707845,324,70
2707855,323,70
2707860,327,70
2707876,318,70
2707886,404,70
2707894,650,68
2707907,658,68
2707910,405,68
2707926,201,68
2707937,309,68
2707943,320,68
2707957,306,68
2707968,308,68
2707976,316,68
2707989,321,68
2707999,320,68
2708010,324,68
2708019,333,68
2708028,329,68
2708038,332,68
2708044,342,68
2708060,342,68
2708071,347,68
2708077,357,68
2708092,353,68
2708101,358,68
2708110,359,68
2708122,364,68
2708132,375,68
2708143,369,68
2708143,378,68
2708160,384,68
2708160,378,68
2708176,382,68
2708194,369,68
2708205,354,68
2708215,348,68
2708225,318,68
2708232,314,68
2708244,317,68
2708244,310,68
2708260,304,68
2708276,309,68
2708286,307,68
2708297,310,68
2708308,312,68
2708310,313,68
2708328,312,68
2708338,312,68
2708343,317,68
2708358,310,68
2708369,316,68
2708376,315,68
2708383,310,68
2708396,312,68
2708410,310,68
2708421,309,68
2708426,311,68
2708441,308,68
2708451,313,68
2708459,309,68
2708459,307,68
2708483,314,68
2708492,309,68
2708503,321,68
2708510,305,68
2708510,322,68
2708528,313,68
2708543,308,68
2708544,311,68
2708559,318,68
2708559,318,68
2708584,318,68
2708594,324,68
2708605,316,68
2708615,327,68
2708626,320,68
2708636,320,68
2708645,324,68
2708645,322,68
2708667,332,68
2708676,324,68
2708685,332,68
2708694,343,68
2708708,341,68
2708719,345,68
2708727,338,68
2708739,332,68
2708744,327,68
2708760,326,68
2708760,332,68
2708777,334,68
2708790,317,68
2708801,323,68
2708810,332,68
2708821,324,68
2708827,377,68
2708842,598,67
2708851,658,67
2708859,516,67
2708872,198,67
2708879,305,67
2708879,319,67
2708894,312,67
2708910,317,67
2708924,316,67
2708934,320,67
2708944,321,67
2708955,320,67
2708960,330,67
2708960,325,67
2708984,335,67
2708995,336,67
2709006,336,67
2709009,345,67
2709026,341,67
2709033,349,67
2709042,356,67
2709042,353,67
2709058,362,67
2709078,367,67
2709087,371,67
2709099,381,67
2709104,382,67
2709119,380,67
2709120,378,67
2709136,368,67
2709146,359,67
2709160,341,67
2709170,332,67
2709181,322,67
2709191,316,67
2709201,310,67
2709204,309,67
2709221,308,67
2709232,314,67
2709237,308,67
2709253,310,67
2709263,315,67
2709271,308,67
2709283,317,67
2709287,309,67
2709304,314,67
2709314,314,67
2709321,311,67
2709335,313,67
2709337,314,67
2709353,309,67
2709365,316,67
2709370,322,67
2709386,318,67
2709396,309,67
2709404,301,67
2709416,318,67
2709420,314,67
2709437,315,67
2709448,319,67
2709453,315,67
2709468,319,67
2709472,318,67
2709487,312,67
2709499,319,67
2709509,319,67
2709519,319,67
2709530,325,67
2709537,314,67
2709537,321,67
2709553,321,67
2709571,320,67
2709579,324,67
2709588,322,67
2709595,337,67
2709604,344,67
2709620,337,67
2709633,338,67
2709637,337,67
2709653,323,67
2709664,324,67
2709670,315,67
2709684,323,67
2709694,323,67
2709704,323,67
2709715,329,67
2709722,326,67
2709736,325,67
2709746,455,67
2709753,658,69
2709766,658,69
2709777,311,69
2709787,231,69
2709795,331,69
2709804,318,69
2709818,319,69
2709828,324,69
2709836,324,69
2709849,333,69
2709854,329,69
2709869,335,69
2709879,342,69
2709890,337,69
2709900,349,69
2709910,352,69
2709920,353,69
2709931,360,69
2709940,358,69
2709952,369,69
2709962,372,69
2709970,376,69
2709970,396,69
2709992,397,69
2710002,403,69
2710003,412,69
2710020,405,69
2710033,414,69
2710044,404,69
2710053,387,69
2710055,373,69
2710071,346,69
2710081,331,69
2710095,324,69
2710104,318,69
2710115,319,69
2710120,313,69
2710136,316,69
2710140,322,69
2710153,315,69
2710167,324,69
2710170,320,69
2710187,322,69
2710198,324,69
2710204,322,69
2710219,325,69
2710229,328,69
2710237,322,69
2710249,323,69
2710260,320,69
2710270,324,69
2710280,327,69
2710287,321,69
2710296,322,69
2710311,323,69
2710321,317,69
2710331,327,69
2710337,321,69
2710351,325,69
2710362,328,69
2710370,323,69
2710383,327,69
2710391,334,69
2710403,343,69
2710414,345,69
2710423,341,69
2710434,341,69
2710444,333,69
2710453,325,69
2710465,334,69
2710472,329,69
2710482,331,69
2710496,335,69
2710504,327,69
2710504,322,69
2710521,403,69
2710537,657,70
2710537,659,70
2710556,493,70
2710566,198,70
2710578,313,70
2710587,323,70
2710599,315,70
2710603,310,70
2710620,319,70
2710621,323,70
2710638,317,70
2710650,328,70
2710660,331,70
2710670,330,70
2710670,337,70
2710687,336,70
2710696,343,70
2710712,346,70
2710721,347,70
2710729,356,70
2710742,361,70
2710753,370,70
2710754,381,70
2710770,385,70
2710780,395,70
2710787,399,70
2710804,402,70
2710814,406,70
2710820,389,70
2710830,365,70
2710840,343,70
2710853,317,70
2710865,306,70
2710870,295,70
2710886,287,70
2710896,291,70
2710904,282,70
2710917,285,70
2710921,287,70
2710937,289,70
2710948,290,70
2710954,293,70
2710954,296,70
2710979,299,70
2710987,296,70
2710999,302,70
2711004,299,70
2711020,296,70
2711030,304,70
2711037,295,70
2711051,297,70
2711060,299,70
2711070,298,70
2711081,299,70
2711089,297,70
2711101,297,70
2711113,302,70
2711120,297,70
2711133,308,70
2711143,317,70
2711153,320,70
2711164,320,70
2711170,311,70
2711180,308,70
2711194,306,70
2711205,307,70
2711215,309,70
2711222,303,70
2711236,306,70
2711246,312,70
2711254,293,70
2711267,341,70
2711277,572,71
2711286,658,71
2711297,623,71
2711304,198,71
2711317,275,71
2711321,311,71
2711337,288,71
2711349,294,71
2711354,295,71
2711369,296,71
2711370,304,71
2711390,298,71
2711400,308,71
2711406,311,71
2711420,312,71
2711422,321,71
2711437,318,71
2711451,322,71
2711462,331,71
2711470,333,71
2711482,346,71
2711487,349,71
2711503,358,71
2711513,371,71
2711521,372,71
2711529,384,71
2711544,386,71
2711554,381,71
2711564,380,71
2711571,357,71
2711571,334,71
2711586,319,71
2711604,297,71
2711616,295,71
2711621,287,71
2711636,281,71
2711637,287,71
2711656,284,71
2711667,286,71
2711670,289,71
2711688,289,71
2711699,294,71
2711703,292,71
2711709,295,71
2711729,297,71
2711737,292,71
2711749,299,71
2711760,297,71
2711770,293,71
2711771,301,71
2711788,297,71
2711801,299,71
2711804,300,71
2711820,294,71
2711831,303,71
2711837,300,71
2711851,297,71
2711863,304,71
2711870,303,71
2711870,305,71
2711888,307,71
2711903,313,71
2711914,306,71
2711920,308,71
2711934,310,71
2711943,317,71
2711953,321,71
2711965,328,71
2711970,326,71
2711985,317,71
2711996,313,71
2712004,308,71
2712017,312,71
2712027,314,71
2712037,314,71
2712038,322,71
2712054,313,71
2712067,335,71
2712071,537,72
2712087,658,72
2712099,650,72
2712104,213,72
2712120,261,72
2712129,316,72
2712139,295,72
2712150,296,72
2712160,303,72
2712170,299,72
2712181,301,72
2712187,310,72
2712202,314,72
2712205,317,72
2712222,316,72
2712232,317,72
2712236,321,72
2712253,327,72
2712253,331,72
2712270,340,72
2712270,340,72
2712288,349,72
2712303,350,72
2712314,361,72
2712321,367,72
2712328,370,72
2712338,376,72
2712353,374,72
2712366,371,72
2712376,359,72
2712386,334,72
2712397,320,72
2712404,313,72
2712417,298,72
2712429,304,72
2712438,286,72
2712448,293,72
2712453,290,72
2712469,283,72
2712479,292,72
2712486,291,72
2712499,295,72
2712504,291,72
2712520,296,72
2712530,299,72
2712540,296,72
2712540,296,72
2712554,302,72
2712570,296,72
2712581,303,72
2712587,298,72
2712598,299,72
2712612,304,72
2712620,302,72
2712633,304,72
2712643,304,72
2712654,300,72
2712654,311,72
2712670,304,72
2712684,309,72
2712687,310,72
2712703,313,72
2712703,313,72
2712721,314,72
2712735,314,72
2712747,319,72
2712756,320,72
2712766,327,72
2712777,312,72
2712786,317,72
2712797,325,72
2712805,328,72
2712805,321,72
2712820,326,72
2712836,319,72
2712849,324,72
2712854,324,72
2712870,323,72
2712870,335,72
2712887,328,72
2712900,327,72
2712904,331,72
2712920,323,72
2712931,332,72
2712938,329,72
2712952,326,72
2712962,337,72
2712970,327,72
2712970,331,72
2712987,331,72
2713003,325,72
2713013,338,72
2713021,332,72
2713034,333,72
2713044,340,72
2713053,335,72
2713065,341,72
2713071,348,72
2713085,351,72
2713094,355,72
2713104,346,72
2713104,346,72
2713121,341,72
2713136,335,72
2713147,342,72
2713153,330,72
2713153,333,72
2713170,337,72
2713188,332,72
2713198,325,72
2713204,406,72
2713219,657,69
2713220,659,69
2713237,550,69
2713242,209,69
2713254,319,69
2713270,325,69
2713280,317,69
2713287,318,69
2713301,319,69
2713310,324,69
2713321,324,69
2713331,332,69
2713338,334,69
2713352,334,69
2713362,342,69
2713370,339,69
2713383,344,69
2713388,355,69
2713404,349,69
2713415,357,69
2713423,362,69
2713434,363,69
2713445,372,69
2713455,377,69
2713465,382,69
2713473,387,69
2713485,387,69
2713496,402,69
2713504,390,69
2713504,389,69
2713524,375,69
2713537,349,69
2713537,334,69
2713554,324,69
2713568,309,69
2713578,308,69
2713586,301,69
2713599,305,69
2713604,309,69
2713620,304,69
2713620,310,69
2713637,306,69
2713650,308,69
2713654,309,69
2713670,304,69
2713681,306,69
2713687,308,69
2713699,305,69
2713704,309,69
2713720,302,69
2713732,310,69
2713743,310,69
2713753,299,69
2713763,309,69
2713771,314,69
2713771,307,69
2713788,314,69
2713804,302,69
2713815,310,69
2713820,311,69
2713835,308,69
2713845,314,69
2713853,311,69
2713866,311,69
2713872,318,69
2713886,314,69
2713888,319,69
2713903,316,69
2713917,315,69
2713928,323,69
2713938,316,69
2713948,320,69
2713958,323,69
2713969,317,69
2713979,332,69
2713988,325,69
2713999,328,69
2714006,332,69
2714020,324,69
2714030,333,69
2714038,330,69
2714038,330,69
2714061,338,69
2714071,333,69
2714081,337,69
2714090,340,69
2714102,337,69
2714113,337,69
2714120,333,69
2714133,350,69
2714143,356,69
2714154,352,69
2714164,355,69
2714173,350,69
2714184,339,69
2714195,340,69
2714203,335,69
2714215,337,69
2714222,339,69
2714232,335,69
2714246,336,69
2714253,329,69
2714267,401,69
2714277,658,67
2714287,659,67
2714298,564,67
2714305,207,67
2714317,318,67
2714329,335,67
2714337,315,67
2714341,322,67
2714354,323,67
2714369,324,67
2714379,330,67
2714387,334,67
2714400,340,67
2714410,337,67
2714421,341,67
2714421,341,67
2714437,349,67
2714452,347,67
2714462,354,67
2714470,357,67
2714470,365,67
2714493,377,67
2714503,378,67
2714513,389,67
2714520,396,67
2714533,394,67
2714544,407,67
2714554,412,67
2714564,405,67
2714570,389,67
2714585,366,67
2714588,346,67
2714604,326,67
2714615,311,67
2714625,303,67
2714636,299,67
2714646,300,67
2714653,293,67
2714667,296,67
2714670,303,67
2714688,299,67
2714696,303,67
2714704,307,67
2714718,302,67
2714728,308,67
2714736,306,67
2714749,308,67
2714760,309,67
2714770,304,67
2714780,310,67
2714787,308,67
2714801,301,67
2714806,304,67
2714820,310,67
2714831,308,67
2714836,308,67
2714852,310,67
2714863,310,67
2714870,309,67
2714883,305,67
2714887,312,67
2714904,307,67
2714904,309,67
2714921,308,67
2714934,313,67
2714937,316,67
2714953,308,67
2714953,309,67
2714973,320,67
2714986,324,67
2714996,327,67
2715004,331,67
2715017,322,67
2715020,319,67
2715037,314,67
2715047,315,67
2715055,318,67
2715067,316,67
2715071,318,67
2715088,317,67
2715090,304,67
2715104,411,67
2715119,658,66
2715129,659,66
2715137,445,66
2715150,194,66
2715161,313,66
2715170,307,66
2715181,300,66
2715188,302,66
2715202,305,66
2715204,311,66
2715221,312,66
2715232,312,66
2715243,321,66
2715253,325,66
2715254,330,66
2715271,328,66
2715283,333,66
2715286,340,66
2715304,340,66
2715315,352,66
2715320,355,66
2715335,358,66
2715345,378,66
2715353,383,66
2715366,393,66
2715370,398,66
2715386,398,66
2715396,398,66
2715404,392,66
2715404,366,66
2715421,341,66
2715437,320,66
2715448,301,66
2715455,295,66
2715468,284,66
2715479,290,66
2715487,284,66
2715499,287,66
2715510,291,66
2715520,286,66
2715530,291,66
2715537,295,66
2715537,292,66
2715556,296,66
2715571,295,66
2715580,299,66
2715587,303,66
2715601,298,66
2715613,301,66
2715620,301,66
2715633,301,66
2715637,304,66
2715653,300,66
2715653,300,66
2715671,302,66
2715685,297,66
2715695,304,66
2715703,307,66
2715703,304,66
2715722,304,66
2715736,304,66
2715746,305,66
2715753,306,66
2715757,311,66
2715771,311,66
2715786,310,66
2715797,314,66
2715804,313,66
2715818,312,66
2715828,315,66
2715837,310,66
2715842,318,66
2715854,329,66
2715869,324,66
2715880,332,66
2715887,327,66
2715887,320,66
2715911,323,66
2715920,317,66
2715931,318,66
2715937,321,66
2715952,322,66
2715954,325,66
2715971,311,66
2715982,412,66
2715993,658,66
2716003,658,66
2716013,449,66
2716020,213,66
2716034,320,66
2716044,313,66
2716054,300,66
2716056,312,66
2716070,316,66
2716070,313,66
2716087,322,66
2716103,320,66
2716116,321,66
2716126,328,66
2716136,321,66
2716147,339,66
2716153,337,66
2716167,340,66
2716178,349,66
2716187,348,66
2716198,356,66
2716208,363,66
2716219,372,66
2716229,381,66
2716238,386,66
2716249,395,66
2716260,395,66
2716270,390,66
2716280,389,66
2716287,369,66
2716301,343,66
2716311,336,66
2716320,310,66
2716331,299,66
2716339,301,66
2716351,298,66
2716363,301,66
2716370,295,66
2716383,299,66
2716392,310,66
2716403,301,66
2716405,308,66
2716421,302,66
2716434,307,66
2716445,306,66
2716454,301,66
2716466,313,66
2716476,311,66
2716485,306,66
2716496,310,66
2716504,307,66
2716504,306,66
2716522,312,66
2716536,306,66
2716547,313,66
2716555,312,66
2716567,309,66
2716571,313,66
2716587,310,66
2716599,310,66
2716603,319,66
2716620,316,66
2716620,316,66
2716636,315,66
2716643,315,66
2716659,323,66
2716659,315,66
2716681,323,66
2716687,324,66
2716701,319,66
2716712,327,66
2716720,324,66
2716732,319,66
2716738,323,66
2716738,317,66
2716754,326,66
2716771,327,66
2716784,320,66
2716794,330,66
2716804,323,66
2716815,326,66
2716825,329,66
2716835,320,66
2716837,330,66
2716854,328,66
2716866,324,66
2716870,334,66
2716886,331,66
2716897,327,66
2716904,336,66
2716918,330,66
2716921,336,66
2716937,336,66
2716948,331,66
2716954,334,66
2716969,331,66
2716979,335,66
2716987,347,66
2716999,346,66
2717004,348,66
2717020,347,66
2717030,344,66
2717037,340,66
2717051,332,66
2717061,335,66
2717070,334,66
2717070,335,66
2717092,341,66
2717102,324,66
2717113,373,66
2717121,590,65
2717121,659,65
2717143,619,65
2717154,224,65
2717164,312,65
2717173,340,65
2717179,310,65
2717188,316,65
2717204,316,65
2717216,318,65
2717220,321,65
2717236,317,65
2717247,317,65
2717254,333,65
2717267,332,65
2717271,344,65
2717286,339,65
2717297,345,65
2717305,348,65
2717318,347,65
2717329,361,65
2717338,358,65
2717349,370,65
2717355,378,65
2717369,385,65
2717380,396,65
2717388,400,65
2717400,397,65
2717411,401,65
2717420,388,65
2717431,379,65
2717438,349,65
2717452,333,65
2717462,323,65
2717472,304,65
2717482,302,65
2717493,305,65
2717502,303,65
2717513,308,65
2717521,301,65
2717534,300,65
2717537,310,65
2717554,307,65
2717565,304,65
2717570,308,65
2717585,308,65
2717587,312,65
2717605,311,65
2717615,304,65
2717625,312,65
2717636,304,65
2717646,307,65
2717653,308,65
2717667,306,65
2717671,316,65
2717688,312,65
2717698,308,65
2717705,309,65
2717718,312,65
2717720,313,65
2717739,315,65
2717750,313,65
2717760,319,65
2717770,314,65
2717780,313,65
2717787,315,65
2717801,318,65
2717811,323,65
2717821,322,65
2717831,321,65
2717839,328,65
2717852,322,65
2717854,324,65
2717871,322,65
2717883,324,65
2717888,327,65
2717904,325,65
2717905,329,65
2717921,335,65
2717929,327,65
2717945,334,65
2717954,328,65
2717965,331,65
2717971,339,65
2717978,330,65
2717988,333,65
2718006,336,65
2718016,343,65
2718027,353,65
2718037,345,65
2718047,341,65
2718053,340,65
2718053,334,65
2718078,333,65
2718087,332,65
2718087,333,65
2718109,337,65
2718119,331,65
2718128,318,65
2718137,377,65
2718137,639,64
2718154,659,64
2718171,615,64
2718180,195,64
2718188,300,64
2718188,326,64
2718207,316,64
2718221,316,64
2718230,316,64
2718238,324,64
2718253,321,64
2718264,328,64
2718271,328,64
2718283,331,64
2718295,341,64
2718304,338,64
2718306,343,64
2718321,348,64
2718330,348,64
2718341,354,64
2718354,359,64
2718366,360,64
2718376,384,64
2718387,382,64
2718388,393,64
2718406,402,64
2718406,399,64
2718428,409,64
2718437,400,64
2718448,384,64
2718454,362,64
2718454,331,64
2718479,314,64
2718487,297,64
2718500,284,64
2718506,285,64
2718520,279,64
2718530,277,64
2718538,289,64
2718538,280,64
2718555,289,64
2718570,286,64
2718581,288,64
2718590,296,64
2718602,291,64
2718613,298,64
2718623,296,64
2718633,289,64
2718643,301,64
2718653,293,64
2718664,289,64
2718670,299,64
2718684,294,64
2718688,295,64
2718703,296,64
2718715,298,64
2718722,297,64
2718722,296,64
2718738,297,64
2718754,297,64
2718754,301,64
2718772,305,64
2718788,302,64
2718798,300,64
2718806,310,64
2718817,301,64
2718828,307,64
2718838,307,64
2718849,304,64
2718854,310,64
2718870,309,64
2718871,311,64
2718887,315,64
2718900,313,64
2718906,317,64
2718920,318,64
2718923,307,64
2718938,315,64
2718952,323,64
2718962,334,64
2718971,331,64
2718982,324,64
2718993,329,64
2719003,320,64
2719013,320,64
2719021,325,64
2719034,310,64
2719042,318,64
2719053,327,64
2719065,312,64
2719070,327,64
2719085,489,64
2719089,658,64
2719104,658,64
2719107,289,64
2719121,244,64
2719137,321,64
2719137,306,64
2719153,305,64
2719167,302,64
2719170,308,64
2719186,313,64
2719186,303,64
2719207,321,64
2719219,316,64
2719229,328,64
2719238,329,64
2719250,326,64
2719253,338,64
2719270,337,64
2719280,344,64
2719288,348,64
2719301,352,64
2719311,362,64
2719320,365,64
2719331,373,64
2719342,382,64
2719352,389,64
2719363,393,64
2719373,387,64
2719383,372,64
2719393,368,64
2719403,344,64
2719414,319,64
2719420,316,64
2719434,297,64
2719445,298,64
2719455,298,64
2719465,290,64
2719471,297,64
2719486,295,64
2719497,300,64
2719503,297,64
2719517,298,64
2719527,304,64
2719537,300,64
2719547,307,64
2719555,311,64
2719568,304,64
2719570,312,64
2719586,309,64
2719599,307,64
2719608,310,64
2719620,308,64
2719629,307,64
2719636,310,64
2719650,308,64
2719660,313,64
2719671,312,64
2719671,310,64
2719690,314,64
2719697,316,64
2719712,316,64
2719720,315,64
2719732,312,64
2719743,322,64
2719753,315,64
2719763,321,64
2719771,324,64
2719771,319,64
2719789,325,64
2719804,328,64
2719815,318,64
2719821,323,64
2719828,325,64
2719838,326,64
2719853,333,64
2719853,325,64
2719871,330,64
2719886,330,64
2719897,328,64
2719904,337,64
2719918,335,64
2719928,329,64
2719937,340,64
2719948,333,64
2719959,337,64
2719969,336,64
2719979,356,64
2719987,356,64
2720000,346,64
2720008,355,64
2720008,344,64
2720031,332,64
2720037,334,64
2720051,331,64
2720054,329,64
2720070,344,64
2720070,333,64
2720087,343,64
2720102,323,64
2720113,430,64
2720120,659,62
2720133,660,62
2720142,471,62
2720154,202,62
2720164,325,62
2720173,318,62
2720184,312,62
2720195,322,62
2720203,314,62
2720209,318,62
2720221,324,62
2720237,330,62
2720237,331,62
2720255,328,62
2720267,330,62
2720270,343,62
2720287,341,62
2720298,345,62
2720303,356,62
2720318,356,62
2720329,360,62
2720336,367,62
2720349,371,62
2720354,378,62
2720370,381,62
2720380,388,62
2720389,397,62
2720400,391,62
2720410,387,62
2720420,379,62
2720431,359,62
2720439,344,62
2720450,325,62
2720462,312,62
2720470,308,62
2720483,296,62
2720493,301,62
2720503,300,62
2720513,298,62
2720521,303,62
2720521,301,62
2720545,302,62
2720554,305,62
2720565,308,62
2720570,311,62
2720585,307,62
2720596,307,62
2720604,308,62
2720609,306,62
2720620,311,62
2720636,308,62
2720647,309,62
2720653,310,62
2720653,306,62
2720677,309,62
2720687,311,62
2720698,306,62
2720704,313,62
2720709,309,62
2720729,309,62
2720737,314,62
2720737,311,62
2720754,314,62
2720770,317,62
2720780,315,62
2720786,320,62
2720801,312,62
2720811,321,62
2720821,318,62
2720832,318,62
2720837,323,62
2720852,321,62
2720863,327,62
2720870,327,62
2720883,321,62
2720887,325,62
2720903,326,62
2720913,336,62
2720921,348,62
2720934,343,62
2720945,338,62
2720954,336,62
2720966,325,62
2720970,329,62
2720986,318,62
2720996,323,62
2721004,328,62
2721017,320,62
2721021,329,62
2721037,317,62
2721048,339,62
2721055,569,61
2721068,659,61
2721070,656,61
2721088,218,61
2721099,269,61
2721103,323,61
2721119,306,61
2721129,305,61
2721136,309,61
2721136,311,61
2721161,320,61
2721166,319,61
2721181,317,61
2721191,334,61
2721197,330,61
2721209,330,61
2721222,340,61
2721232,337,61
2721243,341,61
2721253,347,61
2721264,353,61
2721274,357,61
2721281,361,61
2721286,370,61
2721298,380,61
2721314,378,61
2721325,393,61
2721330,384,61
2721345,380,61
2721347,382,61
2721364,358,61
2721364,343,61
2721382,321,61
2721397,304,61
2721398,309,61
2721413,295,61
2721427,293,61
2721430,293,61
2721447,290,61
2721459,295,61
2721465,292,61
2721480,295,61
2721489,303,61
2721499,303,61
2721510,298,61
2721520,299,61
2721530,299,61
2721541,307,61
2721549,304,61
2721561,304,61
2721571,307,61
2721581,304,61
2721592,307,61
2721597,300,61
2721613,302,61
2721623,306,61
2721631,303,61
2721643,310,61
2721654,307,61
2721663,308,61
2721666,312,61
2721682,307,61
2721695,314,61
2721697,314,61
2721714,309,61
2721726,315,61
2721731,315,61
2721746,317,61
2721746,319,61
2721763,313,61
2721777,326,61
2721787,320,61
2721797,322,61
2721798,340,61
2721815,342,61
2721815,338,61
2721839,338,61
2721848,325,61
2721859,326,61
2721863,318,61
2721880,321,61
2721888,324,61
2721898,321,61
2721911,329,61
2721913,325,61
2721931,310,61
2721939,404,61
2721947,657,60
2721947,658,60
2721972,497,60
2721981,181,60
2721989,313,60
2721999,318,60
2722013,305,60
2722024,313,60
2722030,314,60
2722040,319,60
2722048,320,60
2722064,322,60
2722075,328,60
2722082,328,60
2722095,334,60
2722106,341,60
2722115,337,60
2722127,345,60
2722130,350,60
2722147,354,60
2722157,372,60
2722163,362,60
2722177,373,60
2722188,379,60
2722198,380,60
2722198,389,60
2722216,393,60
2722229,397,60
2722240,401,60
2722249,371,60
2722249,357,60
2722265,337,60
2722280,316,60
2722291,312,60
2722297,297,60
2722311,307,60
2722314,299,60
2722330,295,60
2722342,307,60
2722347,300,60
2722363,293,60
2722363,308,60
2722380,294,60
2722393,306,60
2722397,301,60
2722414,306,60
2722416,313,60
2722430,305,60
2722445,300,60
2722447,307,60
2722464,301,60
2722476,308,60
2722481,299,60
2722496,301,60
2722507,308,60
2722514,306,60
2722527,300,60
2722538,312,60
2722547,302,60
2722558,310,60
2722568,306,60
2722579,307,60
2722582,313,60
2722598,304,60
2722609,320,60
2722620,312,60
2722630,313,60
2722640,317,60
2722647,316,60
2722661,325,60
2722664,336,60
2722681,336,60
2722691,332,60
2722698,325,60
2722712,319,60
2722722,320,60
2722730,311,60
2722743,323,60
2722749,317,60
2722763,317,60
2722774,324,60
2722782,312,60
2722794,312,60
2722805,426,60
2722814,658,62
2722825,659,62
2722834,401,62
2722845,198,62
2722856,319,62
2722864,309,62
2722864,306,62
2722883,306,62
2722897,314,62
2722907,323,62
2722913,316,62
2722927,324,62
2722938,332,62
2722948,327,62
2722948,342,62
2722965,334,62
2722979,346,62
2722990,347,62
2722999,344,62
2723010,356,62
2723014,364,62
2723031,364,62
2723041,376,62
2723047,379,62
2723061,388,62
2723071,397,62
2723081,389,62
2723083,402,62
2723098,396,62
2723112,376,62
2723123,369,62
2723132,329,62
2723144,319,62
2723153,313,62
2723164,298,62
2723174,310,62
2723181,301,62
2723195,303,62
2723205,298,62
2723214,303,62
2723226,307,62
2723232,309,62
2723246,301,62
2723257,314,62
2723264,305,62
2723277,311,62
2723288,308,62
2723298,303,62
2723298,308,62
2723314,309,62
2723329,308,62
2723338,308,62
2723347,300,62
2723359,310,62
2723364,311,62
2723380,307,62
2723390,313,62
2723397,306,62
2723411,303,62
2723416,313,62
2723431,308,62
2723441,315,62
2723447,316,62
2723462,306,62
2723472,327,62
2723480,317,62
2723488,337,62
2723497,330,62
2723513,327,62
2723513,326,62
2723534,314,62
2723539,310,62
2723539,306,62
2723556,308,62
2723573,314,62
2723586,319,62
2723591,312,62
2723606,309,62
2723616,330,62
2723625,539,64
2723637,659,64
2723647,631,64
2723657,187,64
2723657,259,64
2723674,315,64
2723688,303,64
2723698,301,64
2723706,311,64
2723719,311,64
2723729,303,64
2723740,322,64
2723750,315,64
2723757,326,64
2723770,327,64
2723781,326,64
2723791,337,64
2723791,341,64
2723806,337,64
2723813,348,64
2723822,347,64
2723839,361,64
2723852,361,64
2723862,368,64
2723873,383,64
2723880,379,64
2723880,397,64
2723904,386,64
2723913,376,64
2723925,372,64
2723934,361,64
2723945,340,64
2723955,328,64
2723964,312,64
2723976,310,64
2723986,310,64
2723997,304,64
2724007,304,64
2724013,303,64
2724013,308,64
2724038,307,64
2724047,306,64
2724058,313,64
2724062,315,64
2724078,316,64
2724088,320,64
2724097,299,64
2724097,317,64
2724120,315,64
2724130,316,64
2724138,321,64
2724145,299,64
2724161,324,64
2724170,314,64
2724181,305,64
2724191,318,64
2724201,314,64
2724212,310,64
2724222,313,64
2724231,317,64
2724243,318,64
2724253,317,64
2724263,313,64
2724274,328,64
2724284,330,64
2724295,335,64
2724304,334,64
2724313,320,64
2724325,320,64
2724335,315,64
2724345,314,64
2724356,318,64
2724364,312,64
2724377,318,64
2724381,318,64
2724397,310,64
2724407,324,64
2724413,468,64
2724428,658,64
2724438,657,64
2724445,267,64
2724445,231,64
2724469,318,64
2724479,302,64
2724490,308,64
2724495,303,64
2724510,315,64
2724521,313,64
2724529,316,64
2724541,323,64
2724545,334,64
2724561,326,64
2724572,334,64
2724581,327,64
2724581,333,64
2724603,349,64
2724613,350,64
2724623,353,64
2724633,358,64
2724643,365,64
2724653,372,64
2724662,373,64
2724675,384,64
2724684,386,64
2724695,387,64
2724704,391,64
2724713,374,64
2724713,364,64
2724736,340,64
2724745,320,64
2724757,318,64
2724763,303,64
2724777,302,64
2724787,299,64
2724795,293,64
2724795,305,64
2724813,301,64
2724828,300,64
2724839,306,64
2724845,307,64
2724845,320,64
2724862,305,64
2724880,313,64
2724889,310,64
2724896,312,64
2724911,311,64
2724914,315,64
2724929,310,64
2724941,315,64
2724945,312,64
2724962,306,64
2724973,317,64
2724979,311,64
2724993,312,64
2725003,314,64
2725014,308,64
2725024,317,64
2725033,316,64
2725045,306,64
2725055,315,64
2725062,308,64
2725075,317,64
2725078,318,64
2725095,316,64
2725106,331,64
2725114,315,64
2725127,335,64
2725132,337,64
2725144,331,64
2725157,337,64
2725161,318,64
2725178,317,64
2725187,322,64
2725196,317,64
2725209,321,64
2725214,322,64
2725214,324,64
2725240,322,64
2725246,322,64
2725260,473,64
2725262,658,64
2725279,657,64
2725291,286,64
2725295,226,64
2725311,323,64
2725323,308,64
2725328,301,64
2725343,314,64
2725345,311,64
2725362,313,64
2725373,323,64
2725381,321,64
2725394,332,64
2725395,333,64
2725414,330,64
2725414,337,64
2725432,339,64
2725445,335,64
2725455,347,64
2725465,346,64
2725476,361,64
2725486,359,64
2725496,366,64
2725496,381,64
2725514,380,64
2725528,383,64
2725533,392,64
2725545,378,64
2725559,385,64
2725568,361,64
2725578,342,64
2725589,335,64
2725596,313,64
2725609,311,64
2725620,308,64
2725630,301,64
2725641,306,64
2725645,305,64
2725661,297,64
2725671,315,64
2725680,298,64
2725680,312,64
2725698,307,64
2725712,305,64
2725715,318,64
2725729,309,64
2725739,312,64
2725746,312,64
2725762,310,64
2725774,312,64
2725779,310,64
2725794,312,64
2725799,312,64
2725812,307,64
2725825,311,64
2725829,314,64
2725845,306,64
2725856,309,64
2725862,315,64
2725862,312,64
2725886,314,64
2725896,316,64
2725896,316,64
2725918,315,64
2725927,316,64
2725938,324,64
2725946,308,64
2725959,320,64
2725965,323,64
2725978,317,64
2725990,324,64
2725995,319,64
2726010,330,64
2726021,341,64
2726029,314,64
2726041,319,64
2726046,327,64
2726061,333,64
2726072,337,64
2726079,342,64
2726092,348,64
2726103,344,64
2726113,339,64
2726123,338,64
2726129,329,64
2726138,320,64
2726154,329,64
2726162,323,64
2726175,329,64
2726180,326,64
2726195,324,64
2726205,319,64
2726216,388,64
2726226,651,65
2726236,659,65
2726246,529,65
2726257,193,65
2726262,307,65
2726278,323,65
2726287,312,65
2726295,312,65
2726309,323,65
2726316,326,65
2726329,325,65
2726338,334,65
2726345,332,65
2726359,336,65
2726369,343,65
2726380,345,65
2726390,350,65
2726396,354,65
2726411,357,65
2726421,368,65
2726430,363,65
2726430,378,65
2726445,383,65
2726462,389,65
2726473,403,65
2726483,402,65
2726493,410,65
2726495,414,65
2726512,407,65
2726524,403,65
2726528,374,65
2726544,357,65
2726555,341,65
2726562,324,65
2726575,321,65
2726586,313,65
2726596,309,65
2726606,316,65
2726616,308,65
2726627,314,65
2726630,313,65
2726646,310,65
2726657,319,65
2726668,315,65
2726678,315,65
2726688,320,65
2726695,314,65
2726708,316,65
2726719,315,65
2726729,311,65
2726740,317,65
2726745,312,65
2726760,313,65
2726771,318,65
2726779,313,65
2726792,317,65
2726801,314,65
2726811,314,65
2726821,314,65
2726829,315,65
2726842,316,65
2726852,318,65
2726862,313,65
2726873,321,65
2726879,318,65
2726879,320,65
2726896,325,65
2726912,315,65
2726925,321,65
2726929,320,65
2726945,319,65
2726955,335,65
2726961,337,65
2726976,342,65
2726986,342,65
2726995,329,65
2727007,332,65
2727017,317,65
2727027,329,65
2727037,315,65
2727048,317,65
2727058,323,65
2727068,334,65
2727079,308,65
2727089,383,65
2727096,635,67
2727109,659,67
2727116,630,67
2727129,192,67
2727140,297,67
2727145,324,67
2727160,306,67
2727171,312,67
2727180,308,67
2727187,314,67
2727196,315,67
2727212,315,67
2727223,320,67
2727229,321,67
2727243,325,67
2727254,325,67
2727263,335,67
2727274,334,67
2727284,342,67
2727295,348,67
2727298,356,67
2727313,351,67
2727316,369,67
2727331,373,67
2727345,374,67
2727345,385,67
2727362,382,67
2727377,385,67
2727387,384,67
2727395,364,67
2727407,349,67
2727416,330,67
2727428,311,67
2727438,302,67
2727446,294,67
2727446,291,67
2727463,292,67
2727480,291,67
2727490,296,67
2727496,293,67
2727496,301,67
2727521,296,67
2727529,299,67
2727541,310,67
2727551,300,67
2727561,307,67
2727572,307,67
2727579,308,67
2727583,306,67
2727603,310,67
2727612,304,67
2727623,312,67
2727629,309,67
2727643,306,67
2727654,310,67
2727661,304,67
2727675,310,67
2727684,310,67
2727695,306,67
2727705,314,67
2727712,307,67
2727726,309,67
2727736,316,67
2727746,314,67
2727746,315,67
2727762,315,67
2727778,320,67
2727788,317,67
2727798,310,67
2727808,319,67
2727818,318,67
2727829,320,67
2727839,321,67
2727846,321,67
2727859,323,67
2727870,324,67
2727880,320,67
2727890,327,67
2727896,327,67
2727911,325,67
2727921,324,67
2727929,320,67
2727941,324,67
2727952,327,67
2727962,320,67
2727973,330,67
2727979,327,67
2727993,333,67
2728003,329,67
2728013,332,67
2728024,330,67
2728029,329,67
2728045,315,67
2728055,344,67
2728063,329,67
2728075,331,67
2728085,336,67
2728095,343,67
2728106,353,67
2728114,346,67
2728127,344,67
2728129,341,67
2728145,332,67
2728157,326,67
2728168,327,67
2728178,321,67
2728188,326,67
2728195,325,67
2728209,327,67
2728219,326,67
2728229,357,67
2728240,580,65
2728245,658,65
2728245,624,65
2728271,208,65
2728279,271,65
2728291,327,65
2728301,310,65
2728311,308,65
2728322,317,65
2728328,315,65
2728343,319,65
2728345,324,65
2728362,316,65
2728373,327,65
2728381,325,65
2728393,330,65
2728405,337,65
2728412,330,65
2728425,340,65
2728432,344,65
2728445,345,65
2728455,353,65
2728461,363,65
2728461,366,65
2728486,369,65
2728495,372,65
2728507,367,65
2728517,386,65
2728528,384,65
2728538,380,65
2728545,366,65
2728558,354,65
2728568,341,65
2728579,319,65
2728589,322,65
2728596,306,65
2728609,302,65
2728620,305,65
2728629,299,65
2728640,304,65
2728651,303,65
2728661,302,65
2728662,306,65
