Timestamp,ECGValue,BPM
1790042,327,65
1790057,330,65
1790060,333,65
1790076,326,65
1790087,333,65
1790093,327,65
1790093,336,65
1790117,344,65
1790125,342,65
1790139,345,65
1790149,340,65
1790158,333,65
1790170,334,65
1790179,327,65
1790190,331,65
1790200,332,65
1790208,333,65
1790221,330,65
1790231,324,65
1790241,452,65
1790245,658,63
1790258,659,63
1790273,401,63
1790282,223,63
1790292,328,63
1790303,322,63
1790308,316,63
1790323,312,63
1790329,319,63
1790343,321,63
1790355,325,63
1790359,328,63
1790375,330,63
1790385,333,63
1790396,334,63
1790406,340,63
1790416,346,63
1790424,347,63
1790437,350,63
1790447,357,63
1790457,364,63
1790467,367,63
1790477,376,63
1790484,388,63
1790493,391,63
1790508,397,63
1790518,401,63
1790526,403,63
1790539,395,63
1790550,379,63
1790559,357,63
1790559,336,63
1790580,319,63
1790590,306,63
1790592,296,63
1790609,294,63
1790621,296,63
1790632,292,63
1790642,294,63
1790653,295,63
1790663,298,63
1790673,301,63
1790683,300,63
1790692,301,63
1790704,307,63
1790714,305,63
1790725,306,63
1790735,309,63
1790742,304,63
1790755,309,63
1790766,302,63
1790775,305,63
1790786,305,63
1790792,303,63
1790807,306,63
1790809,306,63
1790826,304,63
1790837,307,63
1790847,303,63
1790858,308,63
1790868,306,63
1790875,305,63
1790889,309,63
1790899,308,63
1790909,310,63
1790920,311,63
1790925,308,63
1790940,311,63
1790950,311,63
1790958,313,63
1790971,313,63
1790982,312,63
1790992,314,63
1791002,314,63
1791008,315,63
1791023,319,63
1791033,317,63
1791042,318,63
1791053,319,63
1791059,317,63
1791074,323,63
1791084,319,63
1791091,323,63
1791105,323,63
1791111,317,63
1791125,321,63
1791135,330,63
1791142,337,63
1791156,334,63
1791166,338,63
1791176,328,63
1791187,326,63
1791191,324,63
1791207,328,63
1791216,326,63
1791225,328,63
1791228,328,63
1791248,319,63
1791258,332,63
1791259,490,63
1791276,658,61
1791289,657,61
1791292,298,61
1791308,253,61
1791320,329,61
1791325,311,61
1791341,308,61
1791341,309,61
1791358,313,61
1791358,316,61
1791382,318,61
1791391,319,61
1791403,325,61
1791409,327,61
1791424,328,61
1791433,331,61
1791444,336,61
1791454,341,61
1791464,343,61
1791474,346,61
1791485,353,61
1791491,359,61
1791505,367,61
1791516,376,61
1791526,380,61
1791527,393,61
1791543,390,61
1791557,395,61
1791567,385,61
1791576,370,61
1791587,351,61
1791593,334,61
1791608,316,61
1791618,308,61
1791625,299,61
1791625,303,61
1791643,298,61
1791659,298,61
1791670,298,61
1791680,299,61
1791690,304,61
1791701,303,61
1791708,302,61
1791721,307,61
1791732,306,61
1791741,305,61
1791752,311,61
1791759,308,61
1791759,307,61
1791775,308,61
1791793,307,61
1791803,307,61
1791814,305,61
1791823,309,61
1791834,309,61
1791842,306,61
1791855,309,61
1791860,311,61
1791875,310,61
1791885,313,61
1791894,313,61
1791906,313,61
1791917,316,61
1791925,314,61
1791937,316,61
1791947,312,61
1791957,318,61
1791968,322,61
1791975,316,61
1791979,320,61
1791994,320,61
1792008,321,61
1792008,319,61
1792027,319,61
1792039,324,61
1792050,324,61
1792059,326,61
1792071,326,61
1792081,328,61
1792092,327,61
1792100,328,61
1792109,330,61
1792121,330,61
1792132,330,61
1792142,330,61
1792144,333,61
1792159,332,61
1792159,332,61
1792184,333,61
1792192,334,61
1792204,333,61
1792208,328,61
1792224,329,61
1792235,344,61
1792242,349,61
1792255,347,61
1792259,346,61
1792275,342,61
1792285,338,61
1792292,334,61
1792307,335,61
1792317,338,61
1792326,335,61
1792337,341,61
1792341,333,61
1792358,329,61
1792368,450,61
1792375,658,59
1792388,659,59
1792399,421,59
1792409,231,59
1792420,333,59
1792428,323,59
1792440,317,59
1792450,321,59
1792458,321,59
1792471,325,59
1792475,324,59
1792491,325,59
1792501,331,59
1792509,332,59
1792522,339,59
1792533,338,59
1792542,342,59
1792552,345,59
1792561,346,59
1792573,360,59
1792584,360,59
1792593,365,59
1792605,376,59
1792614,385,59
1792624,391,59
1792635,394,59
1792642,399,59
1792656,404,59
1792666,401,59
1792676,388,59
1792676,371,59
1792697,346,59
1792707,327,59
1792718,314,59
1792727,307,59
1792738,302,59
1792748,302,59
1792759,303,59
1792769,303,59
1792777,299,59
1792787,306,59
1792800,307,59
1792808,304,59
1792820,308,59
1792826,307,59
1792842,309,59
1792842,310,59
1792859,310,59
1792871,306,59
1792882,308,59
1792891,308,59
1792903,310,59
1792909,306,59
1792923,308,59
1792931,311,59
1792942,308,59
1792954,310,59
1792963,307,59
1792975,309,59
1792985,310,59
1792992,309,59
1793005,315,59
1793016,315,59
1793025,311,59
1793030,316,59
1793041,315,59
1793057,318,59
1793066,318,59
1793075,314,59
1793087,319,59
1793091,318,59
1793108,317,59
1793119,322,59
1793125,318,59
1793139,322,59
1793149,321,59
1793159,326,59
1793159,324,59
1793175,322,59
1793184,326,59
1793201,328,59
1793208,324,59
1793220,325,59
1793232,329,59
1793242,340,59
1793252,340,59
1793258,338,59
1793258,335,59
1793278,333,59
1793292,327,59
1793303,327,59
1793308,326,59
1793324,328,59
1793334,330,59
1793342,325,59
1793354,321,59
1793365,446,59
1793375,658,59
1793385,659,59
1793392,393,59
1793406,226,59
1793416,322,59
1793426,320,59
1793437,314,59
1793447,314,59
1793458,316,59
1793468,320,59
1793478,321,59
1793488,326,59
1793498,326,59
1793508,328,59
1793519,334,59
1793526,335,59
1793540,342,59
1793549,344,59
1793559,348,59
1793570,352,59
1793580,358,59
1793592,365,59
1793601,373,59
1793609,380,59
1793621,392,59
1793632,395,59
1793642,401,59
1793653,406,59
1793663,392,59
1793673,379,59
1793683,356,59
1793693,337,59
1793704,315,59
1793714,305,59
1793724,298,59
1793734,294,59
1793742,290,59
1793755,293,59
1793766,291,59
1793776,294,59
1793786,297,59
1793792,295,59
1793806,302,59
1793816,301,59
1793825,303,59
1793837,308,59
1793848,301,59
1793857,306,59
1793868,303,59
1793876,302,59
1793889,307,59
1793894,302,59
1793909,304,59
1793909,303,59
1793925,303,59
1793941,303,59
1793951,304,59
1793958,305,59
1793971,302,59
1793982,305,59
1793991,307,59
1794002,304,59
1794009,307,59
1794023,307,59
1794032,308,59
1794042,311,59
1794053,312,59
1794063,313,59
1794073,313,59
1794085,315,59
1794092,312,59
1794105,318,59
1794115,315,59
1794125,319,59
1794135,316,59
1794141,318,59
1794156,321,59
1794166,318,59
1794175,322,59
1794187,321,59
1794193,318,59
1794193,324,59
1794208,324,59
1794228,324,59
1794238,326,59
1794248,326,59
1794258,326,59
1794269,331,59
1794276,325,59
1794290,330,59
1794300,329,59
1794309,328,59
1794309,327,59
1794326,335,59
1794341,342,59
1794351,345,59
1794359,342,59
1794359,341,59
1794382,333,59
1794392,331,59
1794403,333,59
1794408,328,59
1794424,333,59
1794434,333,59
1794441,327,59
1794441,326,59
1794458,429,59
1794474,658,58
1794485,659,58
1794492,436,58
1794505,231,58
1794516,327,58
1794525,319,58
1794536,315,58
1794541,312,58
1794557,316,58
1794561,320,58
1794576,319,58
1794587,328,58
1794593,325,58
1794608,326,58
1794608,330,58
1794626,333,58
1794639,337,58
1794644,340,58
1794659,343,58
1794670,347,58
1794680,352,58
1794690,362,58
1794700,369,58
1794708,372,58
1794720,383,58
1794731,389,58
1794741,391,58
1794742,397,58
1794759,394,58
1794773,383,58
1794777,365,58
1794792,344,58
1794803,328,58
1794808,316,58
1794823,305,58
1794834,301,58
1794841,301,58
1794855,302,58
1794865,304,58
1794875,303,58
1794885,304,58
1794895,303,58
1794906,307,58
1794916,308,58
1794925,308,58
1794937,310,58
1794947,307,58
1794957,312,58
1794968,309,58
1794977,306,58
1794988,308,58
1794998,306,58
1795008,308,58
1795020,312,58
1795026,306,58
1795039,310,58
1795050,308,58
1795060,311,58
1795060,312,58
1795081,311,58
1795091,312,58
1795092,317,58
1795108,316,58
1795122,315,58
1795125,312,58
1795141,319,58
1795153,319,58
1795163,316,58
1795173,320,58
1795180,320,58
1795193,318,58
1795204,322,58
1795208,322,58
1795225,323,58
1795235,320,58
1795241,323,58
1795255,324,58
1795265,324,58
1795275,326,58
1795286,327,58
1795297,322,58
1795307,326,58
1795317,331,58
1795326,327,58
1795337,330,58
1795343,329,58
1795358,330,58
1795368,331,58
1795375,330,58
1795389,328,58
1795395,334,58
1795408,342,58
1795420,346,58
1795430,342,58
1795440,345,58
1795450,335,58
1795458,335,58
1795471,333,58
1795477,333,58
1795488,332,58
1795492,334,58
1795508,332,58
1795522,324,58
1795526,404,58
1795541,657,58
1795553,659,58
1795561,543,58
1795573,214,58
1795584,314,58
1795592,324,58
1795604,317,58
1795615,318,58
1795624,319,58
1795635,320,58
1795641,322,58
1795656,328,58
1795667,334,58
1795675,333,58
1795687,333,58
1795697,339,58
1795707,340,58
1795717,343,58
1795725,345,58
1795738,354,58
1795749,359,58
1795758,362,58
1795770,371,58
1795777,378,58
1795790,391,58
1795800,395,58
1795811,401,58
1795811,406,58
1795828,401,58
1795841,389,58
1795851,372,58
1795859,348,58
1795859,329,58
1795876,311,58
1795892,304,58
1795903,297,58
1795909,295,58
1795923,296,58
1795930,293,58
1795942,298,58
1795954,300,58
1795965,298,58
1795975,301,58
1795985,303,58
1795992,303,58
1795992,306,58
1796016,306,58
1796025,306,58
1796034,308,58
1796042,305,58
1796056,305,58
1796061,306,58
1796075,304,58
1796087,309,58
1796097,305,58
1796108,305,58
1796119,305,58
1796127,305,58
1796139,309,58
1796149,308,58
1796159,308,58
1796170,310,58
1796175,308,58
1796181,313,58
1796201,309,58
1796209,313,58
1796222,316,58
1796227,313,58
1796234,317,58
1796252,315,58
1796258,315,58
1796273,320,58
1796277,319,58
1796292,319,58
1796292,317,58
1796309,318,58
1796324,318,58
1796334,321,58
1796342,323,58
1796342,324,58
1796365,320,58
1796375,319,58
1796385,329,58
1796391,335,58
1796406,337,58
1796408,337,58
1796426,331,58
1796437,328,58
1796443,324,58
1796458,324,58
1796458,324,58
1796476,322,58
1796488,323,58
1796492,326,58
1796508,313,58
1796519,398,58
1796525,656,58
1796540,659,58
1796541,495,58
1796559,207,58
1796571,314,58
1796576,317,58
1796591,311,58
1796601,309,58
1796608,310,58
1796608,316,58
1796632,318,58
1796641,318,58
1796653,321,58
1796659,323,58
1796674,327,58
1796684,331,58
1796691,336,58
1796704,337,58
1796708,339,58
1796724,347,58
1796735,353,58
1796742,354,58
1796756,364,58
1796759,371,58
1796775,380,58
1796786,387,58
1796797,392,58
1796807,396,58
1796817,393,58
1796825,378,58
1796837,358,58
1796842,335,58
1796858,319,58
1796869,307,58
1796875,296,58
1796884,296,58
1796892,293,58
1796908,294,58
1796920,290,58
1796930,296,58
1796940,294,58
1796951,297,58
1796958,301,58
1796972,302,58
1796980,303,58
1796992,305,58
1797002,305,58
1797009,303,58
1797023,309,58
1797033,307,58
1797043,304,58
1797054,304,58
1797058,302,58
1797074,303,58
1797084,306,58
1797092,305,58
1797105,308,58
1797115,306,58
1797124,309,58
1797135,308,58
1797142,306,58
1797142,311,58
1797167,309,58
1797175,310,58
1797187,314,58
1797193,314,58
1797208,313,58
1797218,316,58
1797227,317,58
1797231,314,58
1797242,315,58
1797259,320,58
1797269,317,58
1797276,320,58
1797290,318,58
1797293,320,58
1797308,322,58
1797320,324,58
1797326,322,58
1797341,325,58
1797342,327,58
1797359,324,58
1797371,330,58
1797382,325,58
1797392,326,58
1797403,332,58
1797409,331,58
1797409,328,58
1797429,331,58
1797442,330,58
1797454,329,58
1797465,332,58
1797475,341,58
1797485,346,58
1797491,343,58
1797506,343,58
1797509,335,58
1797525,336,58
1797537,335,58
1797542,332,58
1797558,334,58
1797567,334,58
1797575,331,58
1797587,327,58
1797595,349,58
1797608,541,58
1797608,659,58
1797626,655,58
1797640,259,58
1797644,277,58
1797659,333,58
1797670,318,58
1797675,314,58
1797690,317,58
1797701,317,58
1797708,322,58
1797722,323,58
1797730,327,58
1797741,329,58
1797752,333,58
1797758,328,58
1797772,334,58
1797783,337,58
1797791,342,58
1797804,349,58
1797814,350,58
1797824,357,58
1797834,365,58
1797842,369,58
1797855,381,58
1797865,386,58
1797875,392,58
1797885,396,58
1797892,396,58
1797906,394,58
1797909,377,58
1797926,358,58
1797937,340,58
1797942,321,58
1797958,313,58
1797968,312,58
1797975,301,58
1797988,307,58
1797993,301,58
1798009,304,58
1798019,305,58
1798026,308,58
1798040,307,58
1798042,309,58
1798059,309,58
1798071,310,58
1798081,306,58
1798092,313,58
1798093,308,58
1798108,309,58
1798122,311,58
1798126,310,58
1798142,311,58
1798142,313,58
1798159,309,58
1798174,313,58
1798176,310,58
1798192,312,58
1798192,309,58
1798209,310,58
1798225,314,58
1798235,315,58
1798242,320,58
1798242,318,58
1798266,312,58
1798275,317,58
1798283,318,58
1798292,317,58
1798292,322,58
1798313,320,58
1798326,319,58
1798337,325,58
1798343,322,58
1798359,324,58
1798368,321,58
1798375,327,58
1798390,327,58
1798399,325,58
1798409,323,58
1798409,328,58
1798426,327,58
1798434,330,58
1798445,333,58
1798458,329,58
1798472,333,58
1798482,328,58
1798491,326,58
1798491,331,58
1798509,340,58
1798523,347,58
1798532,344,58
1798542,346,58
1798545,337,58
1798559,331,58
1798574,331,58
1798584,333,58
1798591,330,58
1798605,332,58
1798615,333,58
1798625,324,58
1798636,343,58
1798642,546,57
1798656,659,57
1798667,658,57
1798676,266,57
1798676,262,57
1798697,326,57
1798707,316,57
1798718,316,57
1798727,315,57
1798739,317,57
1798749,320,57
1798759,322,57
1798759,326,57
1798775,327,57
1798790,331,57
1798792,338,57
1798809,336,57
1798821,342,57
1798831,343,57
1798842,351,57
1798852,356,57
1798859,357,57
1798872,369,57
1798882,376,57
1798893,393,57
1798903,395,57
1798913,401,57
1798923,406,57
1798934,406,57
1798943,394,57
1798954,379,57
1798958,355,57
1798974,330,57
1798985,318,57
1798992,302,57
1799005,296,57
1799016,293,57
1799024,292,57
1799036,291,57
1799046,292,57
1799057,294,57
1799060,294,57
1799076,295,57
1799087,300,57
1799099,302,57
1799108,299,57
1799108,303,57
1799127,304,57
1799140,306,57
1799149,307,57
1799159,304,57
1799170,307,57
1799180,302,57
1799190,306,57
1799201,303,57
1799208,302,57
1799222,305,57
1799228,305,57
1799242,306,57
1799253,304,57
1799258,303,57
1799273,308,57
1799283,311,57
1799293,307,57
1799304,310,57
1799309,309,57
1799324,310,57
1799334,311,57
1799344,311,57
1799355,314,57
1799361,311,57
1799375,315,57
1799386,314,57
1799392,313,57
1799406,316,57
1799417,316,57
1799425,321,57
1799432,316,57
1799441,315,57
1799458,322,57
1799459,323,57
1799476,313,57
1799489,325,57
1799492,329,57
1799509,335,57
1799520,335,57
1799527,337,57
1799540,326,57
1799550,319,57
1799559,321,57
1799559,321,57
1799575,322,57
1799592,327,57
1799602,325,57
1799609,319,57
1799622,330,57
1799632,488,57
1799641,658,57
1799653,658,57
1799659,308,57
1799673,248,57
1799678,324,57
1799692,311,57
1799704,309,57
1799709,304,57
1799725,311,57
1799734,315,57
1799742,313,57
1799756,316,57
1799766,322,57
1799775,326,57
1799787,327,57
1799796,328,57
1799808,336,57
1799811,335,57
1799827,339,57
1799837,348,57
1799847,349,57
1799858,361,57
1799860,367,57
1799877,374,57
1799889,382,57
1799899,392,57
1799909,391,57
1799919,395,57
1799927,389,57
1799940,371,57
1799951,351,57
1799958,332,57
1799972,319,57
1799979,303,57
1799991,298,57
1800002,294,57
1800012,299,57
1800023,298,57
1800033,300,57
1800042,300,57
1800054,300,57
1800060,301,57
1800060,302,57
1800076,306,57
1800094,304,57
1800098,306,57
1800115,304,57
1800125,308,57
1800134,308,57
1800144,305,57
1800156,311,57
1800167,306,57
1800175,308,57
1800187,311,57
1800197,305,57
1800208,311,57
1800217,308,57
1800228,310,57
1800239,312,57
1800249,312,57
1800259,314,57
1800269,314,57
1800276,314,57
1800290,318,57
1800300,316,57
1800310,317,57
1800321,322,57
1800328,318,57
1800341,323,57
1800351,321,57
1800359,320,57
1800372,327,57
1800383,319,57
1800392,325,57
1800392,327,57
1800413,323,57
1800423,326,57
1800434,325,57
1800441,328,57
1800455,327,57
1800465,325,57
1800475,329,57
1800480,329,57
1800492,331,57
1800492,333,57
1800509,330,57
1800525,330,57
1800537,332,57
1800543,330,57
1800558,332,57
1800560,333,57
1800576,331,57
1800588,333,57
1800592,332,57
1800608,330,57
1800619,337,57
1800625,347,57
1800639,352,57
1800644,345,57
1800659,344,57
1800669,340,57
1800675,333,57
1800690,333,57
1800691,333,57
1800707,332,57
1800721,334,57
1800732,335,57
1800742,325,57
1800752,362,57
1800758,573,57
1800772,659,57
1800783,652,57
1800792,243,57
1800804,290,57
1800811,329,57
1800824,314,57
1800834,319,57
1800841,315,57
1800855,322,57
1800859,320,57
1800875,326,57
1800886,326,57
1800892,326,57
1800906,332,57
1800917,337,57
1800925,336,57
1800937,339,57
1800947,341,57
1800957,351,57
1800958,353,57
1800978,358,57
1800989,363,57
1800999,370,57
1801008,381,57
1801019,392,57
1801030,394,57
1801040,399,57
1801041,398,57
1801058,393,57
1801071,382,57
1801075,359,57
1801092,337,57
1801092,324,57
1801110,310,57
1801122,305,57
1801133,299,57
1801142,301,57
1801142,302,57
1801159,300,57
1801174,305,57
1801184,304,57
1801193,302,57
1801204,309,57
1801214,306,57
1801225,308,57
1801233,310,57
1801243,310,57
1801256,311,57
1801268,306,57
1801276,308,57
1801287,310,57
1801297,307,57
1801308,311,57
1801317,309,57
1801324,308,57
1801337,312,57
1801348,311,57
1801358,311,57
1801360,311,57
1801376,312,57
1801386,315,57
1801400,312,57
1801408,313,57
1801420,322,57
1801430,315,57
1801440,314,57
1801451,319,57
1801458,319,57
1801472,320,57
1801482,319,57
1801492,320,57
1801502,321,57
1801508,321,57
1801508,322,57
1801531,321,57
1801542,324,57
1801554,325,57
1801560,321,57
1801574,325,57
1801575,325,57
1801592,327,57
1801602,329,57
1801608,321,57
1801624,327,57
1801635,341,57
1801640,344,57
1801656,344,57
1801656,338,57
1801677,331,57
1801682,327,57
1801697,324,57
1801701,329,57
1801714,328,57
1801729,325,57
1801738,331,57
1801749,321,57
1801760,333,57
1801770,508,57
1801779,659,57
1801784,658,57
1801798,300,57
1801811,245,57
1801814,325,57
1801831,314,57
1801842,310,57
1801849,313,57
1801862,316,57
1801872,318,57
1801882,322,57
1801891,324,57
1801898,327,57
1801898,327,57
1801914,336,57
1801931,337,57
1801940,339,57
1801954,344,57
1801964,348,57
1801975,354,57
1801981,359,57
1801995,366,57
1802006,376,57
1802014,381,57
1802026,391,57
1802036,399,57
1802047,400,57
1802057,402,57
1802067,394,57
1802078,374,57
1802088,357,57
1802098,335,57
1802108,314,57
1802116,303,57
1802116,295,57
1802139,293,57
1802148,289,57
1802148,290,57
1802164,293,57
1802180,293,57
1802190,299,57
1802201,297,57
1802211,297,57
1802221,299,57
1802232,303,57
1802232,302,57
1802248,304,57
1802263,303,57
1802274,304,57
1802283,305,57
1802294,302,57
1802303,307,57
1802314,304,57
1802324,307,57
1802332,302,57
1802344,306,57
1802355,307,57
1802365,306,57
1802367,308,57
1802383,308,57
1802396,308,57
1802406,309,57
1802415,308,57
1802415,311,57
1802432,310,57
1802447,308,57
1802458,313,57
1802465,311,57
1802479,312,57
1802488,314,57
1802498,312,57
1802509,316,57
1802520,319,57
1802530,315,57
1802540,317,57
1802548,320,57
1802561,316,57
1802564,321,57
1802581,317,57
1802591,325,57
1802597,324,57
1802612,320,57
1802616,325,57
1802632,322,57
1802642,325,57
1802652,331,57
1802663,325,57
1802674,325,57
1802680,333,57
1802694,349,57
1802699,339,57
1802715,340,57
1802725,337,57
1802734,331,57
1802746,326,57
1802748,327,57
1802765,326,57
1802776,327,57
1802783,330,57
1802789,324,57
1802807,316,57
1802815,396,57
1802815,644,57
1802832,659,57
1802847,538,57
1802847,213,57
1802864,312,57
1802879,320,57
1802889,308,57
1802898,313,57
1802910,311,57
1802919,315,57
1802931,316,57
1802940,324,57
1802950,320,57
1802961,326,57
1802965,329,57
1802981,328,57
1802992,338,57
1802999,336,57
1802999,337,57
1803023,350,57
1803032,350,57
1803044,355,57
1803053,362,57
1803064,369,57
1803074,379,57
1803081,386,57
1803094,388,57
1803105,394,57
1803115,392,57
1803117,381,57
1803133,369,57
1803146,349,57
1803156,329,57
1803165,315,57
1803176,307,57
1803187,303,57
1803197,298,57
1803200,300,57
1803215,301,57
1803229,301,57
1803239,302,57
1803249,303,57
1803259,305,57
1803265,309,57
1803280,306,57
1803290,308,57
1803298,306,57
1803310,309,57
1803315,310,57
1803331,309,57
1803342,310,57
1803348,311,57
1803362,309,57
1803372,308,57
1803381,308,57
1803393,313,57
1803402,308,57
1803407,309,57
1803424,313,57
1803432,313,57
1803445,313,57
1803448,312,57
1803464,312,57
1803475,313,57
1803480,316,57
1803495,315,57
1803506,318,57
1803516,318,57
1803526,317,57
1803536,320,57
1803536,317,57
1803551,322,57
1803567,320,57
1803578,325,57
1803583,324,57
1803598,321,57
1803608,325,57
1803617,325,57
1803629,323,57
1803640,329,57
1803650,327,57
1803660,327,57
1803667,328,57
1803680,327,57
1803685,331,57
1803700,329,57
1803700,328,57
1803722,331,57
1803732,331,57
1803742,333,57
1803751,333,57
1803763,333,57
1803768,335,57
1803768,333,57
1803794,333,57
1803801,349,57
1803814,355,57
1803818,348,57
1803834,348,57
1803841,340,57
1803853,338,57
1803865,335,57
1803876,334,57
1803886,337,57
1803896,335,57
1803906,338,57
1803917,333,57
1803926,330,57
1803935,459,57
1803947,658,56
1803958,659,56
1803967,424,56
1803979,229,56
1803989,332,56
1803999,318,56
1804009,316,56
1804019,320,56
1804030,318,56
1804040,322,56
1804051,325,56
1804054,330,56
1804067,331,56
1804081,330,56
1804092,338,56
1804102,339,56
1804112,341,56
1804117,347,56
1804133,347,56
1804143,355,56
1804151,359,56
1804162,366,56
1804174,374,56
1804183,379,56
1804190,389,56
1804201,400,56
1804215,401,56
1804217,408,56
1804235,404,56
1804244,391,56
1804251,374,56
1804266,350,56
1804277,331,56
1804284,317,56
1804297,306,56
1804307,305,56
1804317,300,56
1804328,301,56
1804334,302,56
1804348,298,56
1804352,301,56
1804369,305,56
1804378,305,56
1804390,309,56
1804399,311,56
1804410,304,56
1804417,309,56
1804431,307,56
1804434,309,56
1804451,306,56
1804461,307,56
1804467,309,56
1804482,307,56
1804492,306,56
1804500,310,56
1804513,307,56
1804517,311,56
1804533,307,56
1804543,309,56
1804550,312,56
1804550,309,56
1804567,310,56
1804583,313,56
1804593,310,56
1804601,316,56
1804615,309,56
1804626,312,56
1804634,315,56
1804646,315,56
1804650,318,56
1804667,317,56
1804676,318,56
1804686,321,56
1804689,320,56
1804701,322,56
1804717,320,56
1804717,321,56
1804736,324,56
1804749,322,56
1804760,324,56
1804767,323,56
1804767,327,56
1804784,343,56
1804800,340,56
1804811,341,56
1804818,335,56
1804831,328,56
1804842,326,56
1804852,327,56
1804852,327,56
1804872,326,56
1804883,326,56
1804892,329,56
1804900,314,56
1804914,363,56
1804924,612,57
1804933,659,57
1804944,619,57
1804954,210,57
1804965,286,57
1804975,323,57
1804985,308,57
1804996,306,57
1805005,315,57
1805016,311,57
1805027,315,57
1805034,322,57
1805047,324,57
1805058,325,57
1805067,326,57
1805078,333,57
1805084,336,57
1805099,334,57
1805109,341,57
1805118,345,57
1805129,348,57
1805137,358,57
1805150,363,57
1805160,370,57
1805167,379,57
1805181,387,57
1805190,392,57
1805201,394,57
1805211,393,57
1805221,385,57
1805226,365,57
1805242,344,57
1805251,324,57
1805263,308,57
1805273,300,57
1805283,292,57
1805294,295,57
1805301,290,57
1805310,289,57
1805325,293,57
1805335,293,57
1805343,293,57
1805351,299,57
1805365,297,57
1805376,301,57
1805384,300,57
1805392,303,57
1805400,305,57
1805416,302,57
1805426,304,57
1805436,305,57
1805442,300,57
1805458,301,57
1805467,303,57
1805467,301,57
1805484,306,57
1805499,304,57
1805510,304,57
1805517,306,57
1805517,305,57
1805540,307,57
1805550,309,57
1805554,307,57
1805567,312,57
1805581,311,57
1805584,312,57
1805600,311,57
1805612,313,57
1805618,316,57
1805633,312,57
1805643,314,57
1805651,316,57
1805663,321,57
1805674,320,57
1805683,316,57
1805685,317,57
1805700,323,57
1805715,317,57
1805725,323,57
1805734,324,57
1805746,322,57
1805756,327,57
1805766,323,57
1805777,325,57
1805785,328,57
1805798,325,57
1805807,332,57
1805817,328,57
1805828,327,57
1805837,333,57
1805838,330,57
1805858,326,57
1805867,331,57
1805879,341,57
1805884,353,57
1805900,341,57
1805910,341,57
1805918,336,57
1805931,332,57
1805936,327,57
1805950,331,57
1805961,330,57
1805967,331,57
1805967,331,57
1805992,324,57
1806001,337,57
1806013,495,57
1806019,659,57
1806032,658,57
1806045,313,57
1806053,256,57
1806064,329,57
1806075,313,57
1806084,309,57
1806095,311,57
1806102,314,57
1806115,318,57
1806126,318,57
1806134,320,57
1806147,323,57
1806156,323,57
1806167,329,57
1806167,332,57
1806184,337,57
1806194,336,57
1806208,341,57
1806217,345,57
1806229,352,57
1806235,358,57
1806250,362,57
1806260,374,57
1806267,378,57
1806267,385,57
1806285,390,57
1806300,390,57
1806311,387,57
1806317,379,57
1806331,358,57
1806342,344,57
1806351,323,57
1806362,312,57
1806372,308,57
1806383,301,57
1806387,298,57
1806401,299,57
1806413,301,57
1806417,305,57
1806433,307,57
1806443,301,57
1806454,308,57
1806465,307,57
1806475,309,57
1806484,309,57
1806496,307,57
1806502,312,57
1806516,310,57
1806527,309,57
1806535,312,57
1806548,309,57
1806558,309,57
1806567,310,57
1806578,314,57
1806588,310,57
1806599,313,57
1806609,312,57
1806617,313,57
1806629,310,57
1806635,317,57
1806650,313,57
1806660,318,57
1806668,317,57
1806681,318,57
1806686,320,57
1806701,321,57
1806711,315,57
1806717,323,57
1806717,319,57
1806743,322,57
1806751,325,57
1806751,325,57
1806768,328,57
1806783,324,57
1806795,329,57
1806803,328,57
1806815,329,57
1806817,331,57
1806834,329,57
1806845,333,57
1806851,334,57
1806865,333,57
1806876,331,57
1806884,332,57
1806897,335,57
1806902,339,57
1806917,332,57
1806927,339,57
1806937,340,57
1806947,334,57
1806950,346,57
1806968,354,57
1806979,350,57
1806984,354,57
1806998,342,57
1807010,339,57
1807016,342,57
1807029,337,57
1807040,337,57
1807051,336,57
1807061,340,57
1807068,339,57
1807081,327,57
1807092,403,57
1807101,657,56
1807102,659,56
1807122,580,56
1807133,213,56
1807143,311,56
1807151,330,56
1807163,317,56
1807174,318,56
1807183,322,56
1807194,322,56
1807201,326,56
1807215,326,56
1807225,332,56
1807235,332,56
1807246,333,56
1807256,339,56
1807266,343,56
1807277,347,56
1807284,347,56
1807297,350,56
1807308,359,56
1807317,365,56
1807328,370,56
1807335,381,56
1807349,385,56
1807352,397,56
1807368,399,56
1807379,400,56
1807390,406,56
1807399,392,56
1807410,376,56
1807417,352,56
1807431,333,56
1807439,321,56
1807451,301,56
1807451,300,56
1807467,298,56
1807482,293,56
1807491,297,56
1807501,298,56
1807501,297,56
1807520,301,56
1807534,295,56
1807544,301,56
1807551,306,56
1807564,299,56
1807567,303,56
1807585,305,56
1807594,304,56
1807605,305,56
1807616,305,56
1807626,303,56
1807635,306,56
1807646,302,56
1807657,303,56
1807667,301,56
1807677,304,56
1807685,307,56
1807685,304,56
1807700,309,56
1807717,306,56
1807729,306,56
1807736,310,56
1807749,305,56
1807760,308,56
1807767,311,56
1807780,310,56
1807790,310,56
1807800,311,56
1807811,315,56
1807817,314,56
1807831,310,56
1807841,315,56
1807852,316,56
1807852,314,56
1807868,318,56
1807883,317,56
1807884,318,56
1807900,317,56
1807913,320,56
1807924,334,56
1807934,337,56
1807944,332,56
1807951,330,56
1807965,323,56
1807975,323,56
1807984,319,56
1807996,322,56
1808000,322,56
1808016,321,56
1808027,320,56
1808036,315,56
1808046,324,56
1808050,497,56
1808067,658,57
1808078,658,57
1808084,289,57
1808098,241,57
1808108,320,57
1808117,308,57
1808129,301,57
1808136,308,57
1808149,309,57
1808152,312,57
1808168,314,57
1808181,317,57
1808191,320,57
1808200,323,57
1808200,328,57
1808217,332,57
1808217,332,57
1808242,335,57
1808251,339,57
1808251,345,57
1808268,352,57
1808283,358,57
1808292,363,57
1808300,380,57
1808314,381,57
1808325,388,57
1808333,392,57
1808345,390,57
1808352,387,57
1808365,372,57
1808376,353,57
1808384,332,57
1808396,314,57
1808407,302,57
1808418,296,57
1808418,294,57
1808437,290,57
1808447,293,57
1808459,294,57
1808468,294,57
1808470,298,57
1808486,299,57
1808500,296,57
1808510,305,57
1808519,303,57
1808530,304,57
1808536,308,57
1808551,307,57
1808561,305,57
1808568,305,57
1808568,306,57
1808592,305,57
1808601,304,57
1808601,307,57
1808623,311,57
1808633,305,57
1808643,309,57
1808652,306,57
1808652,311,57
1808667,313,57
1808684,307,57
1808695,310,57
1808702,313,57
1808715,311,57
1808725,313,57
1808733,317,57
1808746,315,57
1808751,315,57
1808767,317,57
1808777,319,57
1808784,320,57
1808788,320,57
1808801,321,57
1808817,323,57
1808828,322,57
1808837,325,57
1808842,321,57
1808859,327,57
1808867,327,57
1808879,326,57
1808890,329,57
1808899,328,57
1808910,330,57
1808917,330,57
1808931,331,57
1808937,332,57
1808950,332,57
1808950,332,57
1808967,338,57
1808982,332,57
1808992,333,57
1809000,332,57
1809013,337,57
1809023,346,57
1809034,346,57
1809044,348,57
1809050,343,57
1809065,335,57
1809068,335,57
1809084,336,57
1809095,336,57
1809102,336,57
1809115,333,57
1809126,334,57
1809136,326,57
1809146,381,57
1809156,606,57
1809167,659,57
1809177,622,57
1809185,228,57
1809185,304,57
1809201,331,57
1809217,313,57
1809217,316,57
1809237,320,57
1809250,318,57
1809260,323,57
1809270,323,57
1809280,326,57
1809290,330,57
1809300,332,57
1809311,332,57
1809318,336,57
1809331,338,57
1809338,344,57
1809351,348,57
1809362,349,57
1809368,360,57
1809383,362,57
1809385,370,57
1809401,380,57
1809414,387,57
1809417,391,57
1809433,396,57
1809444,397,57
1809451,394,57
1809465,376,57
1809475,360,57
1809485,342,57
1809489,326,57
1809500,317,57
1809516,304,57
1809527,302,57
1809534,303,57
1809547,304,57
1809551,306,57
1809567,306,57
1809578,306,57
1809585,308,57
1809598,309,57
1809602,314,57
1809617,310,57
1809629,307,57
1809638,309,57
1809649,311,57
1809660,310,57
1809667,309,57
1809681,307,57
1809687,312,57
1809701,306,57
1809711,308,57
1809717,313,57
1809732,307,57
1809742,315,57
1809750,312,57
1809763,309,57
1809769,314,57
1809779,314,57
1809787,317,57
1809804,312,57
1809815,313,57
1809824,320,57
1809834,316,57
1809845,318,57
1809850,317,57
1809866,318,57
1809877,319,57
1809884,320,57
1809896,320,57
1809901,324,57
1809917,319,57
1809923,323,57
1809933,326,57
1809944,320,57
1809951,327,57
1809967,324,57
1809979,325,57
1809989,328,57
1810000,327,57
1810010,329,57
1810017,329,57
1810030,329,57
1810039,328,57
1810050,330,57
1810061,331,57
1810068,332,57
1810082,330,57
1810092,334,57
1810102,341,57
1810112,344,57
1810117,344,57
1810133,346,57
1810142,336,57
1810152,330,57
1810163,334,57
1810167,333,57
1810185,328,57
1810194,333,57
1810205,336,57
1810215,325,57
1810225,340,57
1810234,541,56
1810246,659,56
1810256,658,56
1810266,274,56
1810277,261,56
1810286,329,56
1810297,313,56
1810308,312,56
1810317,312,56
1810328,315,56
1810334,321,56
1810349,320,56
1810352,326,56
1810367,330,56
1810379,326,56
1810384,333,56
1810400,335,56
1810411,339,56
1810418,344,56
1810428,346,56
1810441,353,56
1810450,358,56
1810461,364,56
1810467,377,56
1810482,379,56
1810492,391,56
1810500,396,56
1810513,401,56
1810523,404,56
1810533,399,56
1810540,381,56
1810553,362,56
1810564,338,56
1810574,323,56
1810584,307,56
1810595,300,56
1810602,294,56
1810616,289,56
1810618,294,56
1810634,292,56
1810640,293,56
1810651,295,56
1810667,297,56
1810677,300,56
1810685,303,56
1810690,299,56
1810708,304,56
1810718,304,56
1810729,302,56
1810738,304,56
1810749,303,56
1810760,306,56
1810770,304,56
1810780,303,56
1810790,303,56
1810800,300,56
1810811,302,56
1810817,304,56
1810831,303,56
1810842,304,56
1810850,306,56
1810862,301,56
1810868,306,56
1810883,309,56
1810884,308,56
1810902,310,56
1810913,307,56
1810924,310,56
1810934,310,56
1810940,310,56
1810951,314,56
1810966,314,56
1810975,314,56
1810985,316,56
1810996,316,56
1811006,317,56
1811017,317,56
1811027,318,56
1811033,319,56
1811047,319,56
1811059,322,56
1811067,319,56
1811078,317,56
1811087,327,56
1811099,339,56
1811109,341,56
1811118,337,56
1811129,330,56
1811139,324,56
1811149,321,56
1811160,321,56
1811167,323,56
1811181,323,56
1811191,326,56
1811201,321,56
1811211,313,56
1811217,353,56
1811232,573,57
1811242,659,57
1811250,641,57
1811263,226,57
1811274,283,57
1811282,319,57
1811294,308,57
1811301,305,57
1811314,305,57
1811325,314,57
1811334,311,57
1811345,314,57
1811352,320,57
1811366,320,57
1811376,325,57
1811385,326,57
1811385,328,57
1811406,335,57
1811418,337,57
1811427,341,57
1811435,348,57
1811448,352,57
1811458,363,57
1811468,366,57
1811468,372,57
1811489,383,57
1811499,386,57
1811510,392,57
1811517,390,57
1811530,382,57
1811539,370,57
1811550,352,57
1811560,332,57
1811571,321,57
1811581,305,57
1811592,299,57
1811600,301,57
1811612,298,57
1811623,301,57
1811634,301,57
1811642,304,57
1811651,301,57
1811663,306,57
1811673,310,57
1811683,305,57
1811694,310,57
1811704,312,57
1811715,308,57
1811725,311,57
1811734,310,57
1811746,311,57
1811756,312,57
1811766,308,57
1811768,311,57
1811784,311,57
1811797,310,57
1811800,311,57
1811818,312,57
1811818,312,57
1811834,313,57
1811849,314,57
1811859,314,57
1811867,314,57
1811880,317,57
1811884,317,57
1811900,315,57
1811910,318,57
1811917,319,57
1811931,316,57
1811941,319,57
1811951,320,57
1811961,322,57
1811970,324,57
1811982,323,57
1811992,324,57
1812000,325,57
1812014,327,57
1812019,330,57
1812033,327,57
1812044,326,57
1812053,332,57
1812065,328,57
1812074,329,57
1812083,331,57
1812095,330,57
1812103,332,57
1812116,334,57
1812127,334,57
1812135,332,57
1812142,332,57
1812151,333,57
1812167,334,57
1812177,335,57
1812184,331,57
1812198,341,57
1812209,352,57
1812218,348,57
1812229,347,57
1812238,343,57
1812250,334,57
1812250,337,57
1812268,334,57
1812280,331,57
1812283,336,57
1812300,331,57
1812300,333,57
1812317,323,57
1812331,403,57
1812342,651,56
1812351,659,56
1812362,557,56
1812367,217,56
1812383,314,56
1812393,328,56
1812400,311,56
1812400,314,56
1812425,316,56
1812434,318,56
1812445,322,56
1812451,326,56
1812465,325,56
1812475,329,56
1812484,333,56
1812496,334,56
1812505,340,56
1812516,344,56
1812527,346,56
1812534,347,56
1812548,352,56
1812557,361,56
1812567,367,56
1812578,373,56
1812588,382,56
1812599,392,56
1812609,397,56
1812618,399,56
1812630,396,56
1812634,393,56
1812650,375,56
1812661,360,56
1812667,342,56
1812667,321,56
1812685,314,56
1812701,308,56
1812712,303,56
1812717,308,56
1812732,302,56
1812742,306,56
1812750,306,56
1812763,308,56
1812767,313,56
1812784,307,56
1812794,314,56
1812800,315,56
1812800,312,56
1812825,314,56
1812834,315,56
1812843,313,56
1812856,315,56
1812865,315,56
1812876,313,56
1812884,312,56
1812896,314,56
1812901,312,56
1812917,312,56
1812927,319,56
1812934,314,56
1812948,314,56
1812957,316,56
1812967,314,56
1812969,316,56
1812989,318,56
1812999,316,56
1813009,321,56
1813018,323,56
1813031,320,56
1813034,322,56
1813051,322,56
1813061,323,56
1813067,323,56
1813082,323,56
1813088,326,56
1813102,326,56
1813102,324,56
1813117,327,56
1813133,325,56
1813143,329,56
1813151,327,56
1813163,324,56
1813167,330,56
1813184,329,56
1813195,330,56
1813201,328,56
1813215,329,56
1813217,343,56
1813236,349,56
1813246,341,56
1813250,344,56
1813266,332,56
1813277,330,56
1813284,330,56
1813298,332,56
1813300,332,56
1813318,330,56
1813328,332,56
1813334,327,56
1813349,331,56
1813353,504,56
1813367,659,56
1813380,658,56
1813390,311,56
1813400,247,56
1813410,323,56
1813417,315,56
1813432,311,56
1813435,314,56
1813451,315,56
1813462,319,56
1813467,324,56
1813483,323,56
1813493,327,56
1813501,328,56
1813513,330,56
1813523,336,56
1813534,337,56
1813544,345,56
1813551,345,56
1813565,348,56
1813574,358,56
1813583,361,56
1813596,367,56
1813602,374,56
1813615,380,56
1813626,392,56
1813634,393,56
1813648,393,56
1813656,391,56
1813668,378,56
1813677,358,56
1813688,338,56
1813698,321,56
1813701,306,56
1813718,297,56
1813729,295,56
1813737,294,56
1813749,292,56
1813752,294,56
1813768,300,56
1813780,295,56
1813784,299,56
1813800,298,56
1813800,302,56
1813818,300,56
1813818,302,56
1813842,306,56
1813851,305,56
1813863,303,56
1813867,309,56
1813883,303,56
1813894,305,56
1813901,305,56
1813913,301,56
1813917,303,56
1813934,306,56
1813945,305,56
1813951,306,56
1813965,305,56
1813976,308,56
1813984,309,56
1813996,307,56
1814006,311,56
1814017,308,56
1814026,310,56
1814035,310,56
1814048,309,56
1814051,316,56
1814068,313,56
1814078,316,56
1814085,312,56
1814094,315,56
1814109,320,56
1814118,316,56
1814118,320,56
1814140,321,56
1814150,319,56
1814160,323,56
1814167,322,56
1814181,320,56
1814190,325,56
1814201,324,56
1814201,328,56
1814218,324,56
1814232,325,56
1814243,330,56
1814250,330,56
1814263,329,56
1814273,327,56
1814284,331,56
1814294,340,56
1814303,345,56
1814315,344,56
1814325,342,56
1814335,333,56
1814335,329,56
1814353,332,56
1814366,326,56
1814376,328,56
1814383,332,56
1814397,329,56
1814400,323,56
1814417,335,56
1814427,497,56
1814437,659,57
1814448,658,57
1814459,315,57
1814468,245,57
1814479,326,57
1814485,316,57
1814500,306,57
1814502,310,57
1814519,314,57
1814530,316,57
1814541,317,57
1814551,320,57
1814551,325,57
1814567,324,57
1814582,328,57
1814592,333,57
1814601,333,57
1814601,336,57
1814618,341,57
1814633,345,57
1814643,353,57
1814651,357,57
1814663,362,57
1814667,370,57
1814684,376,57
1814695,379,57
1814701,391,57
1814716,386,57
1814717,385,57
1814735,377,57
1814746,360,57
1814756,346,57
1814767,327,57
1814769,314,57
1814785,304,57
1814785,300,57
1814800,302,57
1814818,301,57
1814819,305,57
1814835,303,57
1814849,302,57
1814859,309,57
1814867,310,57
1814880,307,57
1814890,308,57
1814900,308,57
1814910,310,57
1814919,309,57
1814919,305,57
1814941,311,57
1814951,307,57
1814962,307,57
1814967,310,57
1814967,310,57
1814993,310,57
1815001,308,57
1815013,308,57
1815019,311,57
1815034,309,57
1815044,309,57
1815053,312,57
1815065,311,57
1815075,314,57
1815084,313,57
1815096,312,57
1815103,315,57
1815116,316,57
1815118,312,57
1815135,317,57
1815147,316,57
1815151,317,57
1815168,319,57
1815178,319,57
1815185,320,57
1815190,318,57
1815209,322,57
1815219,320,57
1815229,323,57
1815235,322,57
1815247,322,57
1815259,326,57
1815269,324,57
1815269,324,57
1815285,328,57
1815301,328,57
1815301,329,57
1815318,329,57
1815332,327,57
1815342,329,57
1815352,329,57
1815363,329,57
1815373,332,57
1815383,329,57
1815392,330,57
1815402,336,57
1815413,348,57
1815418,346,57
1815433,342,57
1815445,338,57
1815451,333,57
1815466,327,57
1815467,333,57
1815485,334,57
1815496,328,57
1815506,333,57
1815517,330,57
1815527,322,57
1815534,384,57
1815548,617,56
1815558,659,56
1815568,608,56
1815578,216,56
1815588,304,56
1815599,326,56
1815608,312,56
1815618,314,56
1815629,314,56
1815635,318,56
1815650,322,56
1815660,325,56
1815667,326,56
1815681,327,56
1815685,334,56
1815702,333,56
1815712,337,56
1815717,343,56
1815717,348,56
1815736,348,56
1815751,353,56
1815755,356,56
1815773,366,56
1815784,372,56
1815794,379,56
1815803,387,56
1815814,393,56
1815824,396,56
1815834,400,56
1815846,390,56
1815851,382,56
1815866,361,56
1815877,341,56
1815884,326,56
1815884,315,56
1815902,307,56
1815917,303,56
1815917,301,56
1815934,302,56
1815948,301,56
1815959,304,56
1815968,305,56
1815968,305,56
1815985,310,56
1816000,306,56
1816001,309,56
1816018,308,56
1816030,306,56
1816034,312,56
1816051,308,56
1816051,307,56
1816068,312,56
1816082,307,56
1816091,308,56
1816101,311,56
1816113,309,56
1816123,311,56
1816133,307,56
1816143,307,56
1816152,313,56
1816164,310,56
1816175,311,56
1816184,314,56
1816186,313,56
1816201,316,56
1816201,312,56
1816225,316,56
1816234,316,56
1816245,314,56
1816251,320,56
1816267,316,56
1816269,316,56
1816284,321,56
1816298,321,56
1816308,322,56
1816317,322,56
1816328,321,56
1816338,323,56
1816349,324,56
1816359,324,56
1816368,324,56
1816380,326,56
1816390,328,56
1816400,324,56
1816411,325,56
1816421,328,56
1816430,342,56
1816435,346,56
1816451,338,56
1816461,338,56
1816467,332,56
1816482,327,56
1816492,326,56
1816500,326,56
1816513,326,56
1816523,330,56
1816535,326,56
1816544,318,56
1816553,341,56
1816553,542,56
1816569,659,56
1816585,656,56
1816596,241,56
1816603,265,56
1816617,323,56
1816627,309,56
1816635,309,56
1816647,310,56
1816651,310,56
1816667,313,56
1816667,318,56
1816685,321,56
1816698,322,56
1816708,326,56
1816717,330,56
1816729,332,56
1816734,336,56
1816749,337,56
1816749,345,56
1816766,348,56
1816781,352,56
1816790,361,56
1816801,368,56
1816808,377,56
1816808,384,56
1816832,386,56
1816842,391,56
1816853,392,56
1816859,389,56
1816873,377,56
1816883,357,56
1816891,335,56
1816904,320,56
1816914,309,56
1816924,299,56
1816931,295,56
1816942,295,56
1816955,296,56
1816959,297,56
1816975,298,56
1816986,299,56
1816991,299,56
1817006,302,56
1817016,302,56
1817025,304,56
1817037,305,56
1817041,304,56
1817057,306,56
1817068,304,56
1817075,301,56
1817089,306,56
1817099,303,56
1817109,304,56
1817120,305,56
1817125,304,56
1817140,309,56
1817151,305,56
1817158,307,56
1817170,309,56
1817181,307,56
1817191,310,56
1817202,311,56
1817208,310,56
1817222,310,56
1817225,311,56
1817240,312,56
1817252,318,56
1817258,312,56
1817274,319,56
1817284,315,56
1817292,317,56
1817304,317,56
1817308,318,56
1817325,318,56
1817335,321,56
1817341,321,56
1817355,322,56
1817366,320,56
1817374,324,56
1817387,324,56
1817397,321,56
1817407,327,56
1817418,325,56
1817425,325,56
1817438,326,56
1817448,325,56
1817458,328,56
1817461,330,56
1817476,327,56
1817485,328,56
1817500,337,56
1817509,346,56
1817520,343,56
1817525,341,56
1817541,340,56
1817551,333,56
1817558,327,56
1817571,331,56
1817581,328,56
1817591,333,56
1817602,332,56
1817609,328,56
1817623,325,56
1817633,434,56
1817642,658,56
1817651,658,56
1817664,434,56
1817674,222,56
1817684,321,56
1817692,319,56
1817692,312,56
1817708,311,56
1817725,316,56
1817734,316,56
1817741,317,56
1817757,322,56
1817767,325,56
1817775,325,56
1817787,328,56
1817795,331,56
1817807,336,56
1817818,339,56
1817825,341,56
1817839,346,56
1817848,353,56
1817858,355,56
1817869,363,56
1817880,369,56
1817890,379,56
1817900,384,56
1817908,388,56
1817921,393,56
1817929,389,56
1817942,384,56
1817952,367,56
1817958,350,56
1817973,336,56
1817975,316,56
1817991,311,56
1818000,305,56
1818014,302,56
1818023,304,56
1818033,302,56
1818042,305,56
1818055,308,56
1818058,303,56
1818074,307,56
1818083,306,56
1818091,307,56
1818106,306,56
1818116,309,56
1818125,311,56
1818137,307,56
1818142,309,56
1818157,311,56
1818168,308,56
1818175,307,56
1818188,312,56
