Timestamp,ECGValue,BPM
678584,309,63
678590,315,63
678605,311,63
678615,313,63
678623,312,63
678636,315,63
678643,313,63
678656,316,63
678656,315,63
678673,314,63
678687,320,63
678690,318,63
678707,318,63
678718,323,63
678723,319,63
678738,318,63
678740,330,63
678757,333,63
678769,334,63
678773,339,63
678789,326,63
678790,323,63
678808,320,63
678820,323,63
678831,320,63
678841,321,63
678851,325,63
678861,320,63
678872,321,63
678873,447,63
678890,658,63
678899,658,63
678907,307,63
678923,225,63
678933,312,63
678944,312,63
678954,310,63
678964,307,63
678974,318,63
678984,313,63
678990,320,63
679005,322,63
679016,325,63
679024,329,63
679036,334,63
679046,332,63
679056,340,63
679067,343,63
679073,347,63
679073,350,63
679091,358,63
679107,365,63
679118,372,63
679124,380,63
679138,388,63
679139,391,63
679156,396,63
679170,395,63
679180,392,63
679190,374,63
679200,353,63
679208,335,63
679221,319,63
679231,302,63
679240,298,63
679252,296,63
679262,296,63
679272,294,63
679283,299,63
679293,300,63
679303,299,63
679308,303,63
679324,301,63
679334,303,63
679343,301,63
679355,304,63
679365,304,63
679374,304,63
679380,304,63
679395,303,63
679405,306,63
679416,305,63
679426,304,63
679436,304,63
679447,304,63
679456,306,63
679456,305,63
679475,306,63
679488,309,63
679489,308,63
679508,309,63
679519,309,63
679523,308,63
679540,313,63
679550,321,63
679557,327,63
679570,327,63
679578,324,63
679590,318,63
679602,315,63
679611,313,63
679622,314,63
679625,316,63
679641,318,63
679652,321,63
679657,313,63
679673,351,63
679683,556,63
679690,658,63
679690,574,63
679708,192,63
679723,281,63
679734,317,63
679739,311,63
679755,309,63
679765,314,63
679773,317,63
679786,322,63
679789,326,63
679807,326,63
679817,329,63
679823,334,63
679837,339,63
679841,338,63
679857,342,63
679868,347,63
679874,353,63
679889,357,63
679891,366,63
679908,370,63
679908,380,63
679930,382,63
679940,390,63
679951,392,63
679957,394,63
679970,391,63
679980,378,63
679990,362,63
680002,343,63
680008,327,63
680022,316,63
680023,307,63
680040,306,63
680045,303,63
680058,303,63
680074,305,63
680084,305,63
680092,308,63
680105,311,63
680108,311,63
680123,311,63
680133,314,63
680145,308,63
680156,312,63
680156,313,63
680173,311,63
680187,312,63
680197,312,63
680207,313,63
680209,311,63
680224,314,63
680238,311,63
680248,311,63
680258,314,63
680258,315,63
680279,314,63
680290,315,63
680300,317,63
680309,317,63
680309,321,63
680331,320,63
680339,320,63
680351,322,63
680361,321,63
680372,322,63
680380,324,63
680390,317,63
680402,321,63
680413,327,63
680423,338,63
680434,340,63
680440,340,63
680454,333,63
680459,328,63
680474,323,63
680485,323,63
680490,327,63
680490,325,63
680516,323,63
680524,327,63
680536,321,63
680540,398,63
680556,632,62
680558,658,62
680574,445,62
680584,206,62
680592,314,62
680608,318,62
680618,309,62
680624,315,62
680638,314,62
680641,317,62
680656,323,62
680656,322,62
680673,326,62
680690,330,62
680690,332,62
680709,333,62
680709,337,62
680732,342,62
680741,345,62
680751,351,62
680756,352,62
680773,359,62
680783,368,62
680789,372,62
680804,378,62
680809,384,62
680823,384,62
680833,387,62
680840,383,62
680855,375,62
680857,358,62
680875,346,62
680886,328,62
680891,316,62
680906,316,62
680909,310,62
680924,308,62
680937,308,62
680940,309,62
680956,311,62
680956,309,62
680974,310,62
680988,313,62
680990,313,62
681007,314,62
681010,310,62
681030,311,62
681039,312,62
681040,314,62
681057,312,62
681071,312,62
681074,313,62
681090,311,62
681101,311,62
681112,313,62
681122,314,62
681131,312,62
681140,313,62
681152,315,62
681157,316,62
681173,316,62
681184,316,62
681191,318,62
681205,316,62
681214,319,62
681223,318,62
681235,320,62
681245,322,62
681256,321,62
681259,320,62
681273,322,62
681286,324,62
681293,323,62
681307,324,62
681319,322,62
681324,328,62
681324,334,62
681348,341,62
681357,339,62
681369,338,62
681379,332,62
681388,327,62
681399,324,62
681407,325,62
681410,326,62
681430,328,62
681440,327,62
681451,323,62
681457,330,62
681471,466,62
681481,658,62
681491,657,62
681502,286,62
681512,242,62
681522,323,62
681533,314,62
681540,309,62
681540,313,62
681564,314,62
681574,317,62
681584,320,62
681589,328,62
681605,326,62
681610,328,62
681623,334,62
681636,332,62
681640,338,62
681655,343,62
681657,345,62
681675,350,62
681683,356,62
681691,360,62
681707,366,62
681710,375,62
681724,379,62
681738,382,62
681748,388,62
681758,389,62
681769,381,62
681773,371,62
681790,355,62
681790,336,62
681807,321,62
681820,312,62
681831,307,62
681840,305,62
681851,300,62
681857,303,62
681873,308,62
681881,307,62
681890,307,62
681902,308,62
681912,307,62
681923,310,62
681934,307,62
681940,309,62
681940,306,62
681958,312,62
681974,308,62
681984,308,62
681995,307,62
682005,309,62
682016,306,62
682023,307,62
682036,309,62
682040,309,62
682057,310,62
682067,312,62
682073,314,62
682073,315,62
682092,311,62
682108,311,62
682119,314,62
682129,313,62
682138,318,62
682148,317,62
682158,318,62
682158,318,62
682174,317,62
682190,319,62
682201,321,62
682207,320,62
682221,323,62
682231,321,62
682240,319,62
682240,332,62
682259,340,62
682259,338,62
682283,335,62
682290,330,62
682303,326,62
682314,325,62
682324,326,62
682334,323,62
682344,329,62
682355,328,62
682365,322,62
682375,332,62
682386,506,62
682396,659,62
682406,657,62
682411,257,62
682423,254,62
682432,322,62
682440,317,62
682457,311,62
682468,314,62
682474,319,62
682488,325,62
682498,324,62
682506,329,62
682519,328,62
682530,332,62
682540,338,62
682540,336,62
682557,338,62
682571,349,62
682581,354,62
682590,357,62
682602,363,62
682611,371,62
682622,378,62
682631,385,62
682641,392,62
682652,396,62
682663,400,62
682673,402,62
682684,389,62
682690,373,62
682704,354,62
682714,334,62
682723,319,62
682734,307,62
682743,305,62
682755,300,62
682757,299,62
682773,300,62
682787,301,62
682791,301,62
682806,304,62
682817,306,62
682824,308,62
682837,304,62
682848,309,62
682857,310,62
682868,307,62
682873,309,62
682889,309,62
682899,307,62
682908,308,62
682917,308,62
682930,306,62
682940,304,62
682951,312,62
682957,308,62
682957,305,62
682982,307,62
682991,309,62
683002,310,62
683012,310,62
683023,314,62
683033,307,62
683040,311,62
683040,320,62
683064,322,62
683074,325,62
683081,324,62
683095,320,62
683104,317,62
683115,314,62
683123,315,62
683136,314,62
683145,318,62
683155,319,62
683166,314,62
683175,315,62
683185,435,62
683190,658,64
683208,658,64
683218,312,64
683224,220,64
683238,312,64
683243,309,64
683256,309,64
683269,306,64
683274,308,64
683290,314,64
683300,316,64
683307,318,64
683321,325,64
683331,326,64
683339,330,64
683352,335,64
683358,336,64
683358,344,64
683382,345,64
683392,351,64
683402,356,64
683412,364,64
683423,371,64
683433,377,64
683440,383,64
683440,388,64
683464,392,64
683474,391,64
683485,378,64
683491,362,64
683491,345,64
683516,326,64
683524,312,64
683533,304,64
683540,302,64
683557,301,64
683567,299,64
683574,301,64
683587,304,64
683598,303,64
683607,305,64
683618,305,64
683624,308,64
683639,312,64
683649,307,64
683656,310,64
683670,308,64
683680,310,64
683690,310,64
683701,311,64
683709,311,64
683720,311,64
683724,314,64
683741,309,64
683752,312,64
683762,311,64
683773,314,64
683783,313,64
683791,316,64
683803,317,64
683814,316,64
683824,318,64
683834,315,64
683842,319,64
683855,317,64
683864,321,64
683873,320,64
683886,321,64
683895,323,64
683906,320,64
683916,323,64
683925,325,64
683937,325,64
683941,325,64
683957,325,64
683967,329,64
683974,326,64
683989,323,64
683998,333,64
684006,341,64
684019,341,64
684023,344,64
684039,339,64
684050,327,64
684057,330,64
684070,329,64
684081,327,64
684091,330,64
684101,332,64
684108,328,64
684121,324,64
684132,408,64
684142,650,65
684152,659,65
684157,467,65
684173,211,65
684183,316,65
684193,322,65
684204,312,65
684214,317,65
684224,316,65
684234,320,65
684242,322,65
684255,324,65
684258,325,65
684274,331,65
684285,333,65
684293,334,65
684307,339,65
684318,341,65
684323,346,65
684338,353,65
684348,356,65
684357,361,65
684369,369,65
684376,375,65
684389,379,65
684399,385,65
684407,391,65
684414,392,65
684423,389,65
684440,376,65
684451,360,65
684460,342,65
684470,328,65
684482,316,65
684491,308,65
684502,307,65
684512,305,65
684522,304,65
684533,306,65
684542,305,65
684542,307,65
684564,307,65
684573,309,65
684584,310,65
684591,309,65
684605,308,65
684614,309,65
684624,306,65
684635,307,65
684640,307,65
684656,307,65
684666,307,65
684674,307,65
684687,305,65
684697,309,65
684707,309,65
684714,308,65
684728,310,65
684739,308,65
684748,309,65
684757,311,65
684769,310,65
684779,312,65
684790,312,65
684800,311,65
684807,314,65
684821,314,65
684831,316,65
684841,315,65
684851,318,65
684862,319,65
684872,320,65
684876,320,65
684891,322,65
684902,320,65
684907,323,65
684923,322,65
684933,323,65
684940,322,65
684954,324,65
684959,324,65
684975,324,65
684984,327,65
684991,328,65
685006,327,65
685016,330,65
685024,328,65
685037,325,65
685040,330,65
685057,341,65
685068,347,65
685074,340,65
685088,340,65
685090,337,65
685107,334,65
685118,331,65
685126,333,65
685136,331,65
685149,331,65
685157,332,65
685170,324,65
685180,357,65
685192,559,65
685201,659,65
685209,641,65
685221,221,65
685232,280,65
685241,326,65
685252,309,65
685259,312,65
685272,315,65
685273,317,65
685291,320,65
685304,322,65
685314,323,65
685324,329,65
685330,328,65
685340,330,65
685355,340,65
685365,339,65
685375,346,65
685386,349,65
685396,351,65
685406,360,65
685416,365,65
685424,374,65
685437,380,65
685448,387,65
685458,394,65
685459,394,65
685474,396,65
685489,389,65
685498,371,65
685506,352,65
685519,335,65
685524,319,65
685540,309,65
685550,299,65
685557,299,65
685557,298,65
685574,299,65
685590,304,65
685602,300,65
685608,301,65
685622,306,65
685632,304,65
685640,306,65
685652,304,65
685657,309,65
685674,306,65
685683,306,65
685690,308,65
685704,309,65
685710,300,65
685724,306,65
685735,307,65
685741,303,65
685755,307,65
685766,306,65
685773,304,65
685787,307,65
685796,312,65
685807,312,65
685817,312,65
685823,306,65
685838,309,65
685848,311,65
685857,313,65
685868,311,65
685876,314,65
685886,314,65
685899,315,65
685907,319,65
685919,317,65
685930,318,65
685940,319,65
685951,320,65
685959,328,65
685971,342,65
685981,336,65
685991,332,65
686002,330,65
686007,326,65
686023,318,65
686033,322,65
686042,321,65
686042,323,65
686057,329,65
686074,326,65
686084,315,65
686091,423,65
686105,658,65
686115,659,65
686125,416,65
686130,208,65
686146,312,65
686156,316,65
686166,309,65
686175,313,65
686182,316,65
686190,315,65
686207,320,65
686218,323,65
686224,326,65
686238,329,65
686248,331,65
686258,334,65
686269,340,65
686279,341,65
686290,346,65
686300,353,65
686307,357,65
686321,363,65
686331,375,65
686341,381,65
686351,386,65
686361,396,65
686372,401,65
686376,401,65
686391,389,65
686402,373,65
686408,350,65
686422,330,65
686434,314,65
686441,300,65
686446,296,65
686465,293,65
686474,295,65
686483,292,65
686491,288,65
686505,296,65
686516,297,65
686524,296,65
686536,300,65
686546,302,65
686556,302,65
686567,305,65
686574,305,65
686579,304,65
686591,302,65
686608,305,65
686619,306,65
686624,304,65
686639,306,65
686650,304,65
686657,305,65
686670,309,65
686680,308,65
686690,308,65
686691,308,65
686707,310,65
686721,314,65
686724,310,65
686740,311,65
686752,313,65
686757,314,65
686773,315,65
686775,314,65
686791,318,65
686804,317,65
686808,319,65
686824,319,65
686834,321,65
686841,320,65
686855,322,65
686866,336,65
686874,343,65
686882,336,65
686891,333,65
686906,328,65
686916,323,65
686925,322,65
686937,324,65
686947,324,65
686957,324,65
686967,331,65
686973,321,65
686989,329,65
686998,477,65
687007,658,66
687019,657,66
687029,284,66
687040,248,66
687050,323,66
687057,315,66
687071,310,66
687082,315,66
687091,317,66
687102,319,66
687108,322,66
687122,327,66
687132,330,66
687141,329,66
687153,335,66
687164,336,66
687173,341,66
687175,344,66
687190,352,66
687190,356,66
687211,361,66
687223,368,66
687234,372,66
687241,384,66
687241,390,66
687266,396,66
687274,400,66
687287,397,66
687297,390,66
687307,372,66
687317,349,66
687324,334,66
687338,323,66
687348,309,66
687357,305,66
687369,305,66
687375,303,66
687389,302,66
687399,304,66
687407,306,66
687420,308,66
687430,310,66
687440,309,66
687451,310,66
687459,309,66
687471,312,66
687482,309,66
687492,311,66
687502,311,66
687512,313,66
687523,311,66
687533,310,66
687542,309,66
687554,314,66
687564,313,66
687574,309,66
687584,313,66
687590,316,66
687605,314,66
687616,315,66
687624,316,66
687635,315,66
687640,316,66
687656,318,66
687657,318,66
687675,319,66
687687,318,66
687692,324,66
687707,322,66
687718,323,66
687723,324,66
687723,325,66
687742,324,66
687757,323,66
687769,325,66
687779,325,66
687789,328,66
687790,324,66
687808,327,66
687818,329,66
687825,329,66
687841,331,66
687841,330,66
687856,333,66
687872,332,66
687882,331,66
687891,333,66
687903,330,66
687913,338,66
687923,352,66
687934,346,66
687941,345,66
687954,342,66
687965,335,66
687974,331,66
687984,331,66
687995,330,66
688005,332,66
688016,334,66
688024,330,66
688024,326,66
688040,416,66
688057,654,65
688067,658,65
688074,458,65
688088,216,65
688090,319,65
688107,321,65
688119,311,65
688126,316,65
688139,316,65
688141,319,65
688158,322,65
688158,323,65
688178,328,65
688191,331,65
688201,331,65
688207,336,65
688221,338,65
688232,341,65
688240,346,65
688253,352,65
688257,356,65
688273,361,65
688282,368,65
688291,375,65
688304,386,65
688308,391,65
688324,396,65
688329,397,65
688340,395,65
688356,387,65
688364,364,65
688374,348,65
688384,333,65
688396,320,65
688406,311,65
688417,307,65
688425,305,65
688437,304,65
688440,306,65
688457,311,65
688457,310,65
688475,310,65
688484,312,65
688499,310,65
688507,313,65
688519,315,65
688524,311,65
688540,311,65
688550,312,65
688558,309,65
688571,311,65
688573,310,65
688592,313,65
688602,312,65
688608,313,65
688622,317,65
688632,309,65
688643,313,65
688653,316,65
688657,316,65
688673,315,65
688683,316,65
688692,317,65
688704,317,65
688709,319,65
688724,322,65
688735,320,65
688743,319,65
688756,318,65
688757,319,65
688774,323,65
688786,322,65
688791,321,65
688806,322,65
688817,322,65
688824,324,65
688833,326,65
688848,324,65
688858,327,65
688869,330,65
688874,329,65
688889,328,65
688899,330,65
688907,329,65
688920,343,65
688929,347,65
688941,344,65
688951,341,65
688957,334,65
688971,330,65
688981,331,65
688990,326,65
689002,327,65
689008,328,65
689022,327,65
689033,327,65
689041,323,65
689054,434,65
689057,658,64
689073,659,64
689084,402,64
689090,212,64
689105,318,64
689115,313,64
689123,315,64
689135,313,64
689146,315,64
689156,317,64
689167,323,64
689174,326,64
689187,327,64
689197,329,64
689208,334,64
689218,338,64
689228,341,64
689239,345,64
689248,347,64
689257,355,64
689269,362,64
689275,367,64
689290,376,64
689291,386,64
689308,394,64
689320,403,64
689324,407,64
689340,403,64
689352,406,64
689357,386,64
689357,364,64
689381,339,64
689391,324,64
689403,310,64
689407,300,64
689423,299,64
689434,296,64
689441,296,64
689455,298,64
689459,296,64
689475,300,64
689485,302,64
689492,303,64
689505,305,64
689516,305,64
689523,306,64
689536,309,64
689546,306,64
689556,307,64
689568,309,64
689575,308,64
689588,305,64
689598,306,64
689607,309,64
689607,310,64
689629,307,64
689639,310,64
689650,309,64
689658,309,64
689670,306,64
689680,308,64
689690,310,64
689701,311,64
689709,312,64
689721,315,64
689732,314,64
689740,315,64
689752,314,64
689762,316,64
689773,316,64
689783,317,64
689792,316,64
689792,319,64
689814,318,64
689824,318,64
689833,328,64
689840,344,64
689840,335,64
689857,332,64
689874,330,64
689886,323,64
689896,320,64
689906,320,64
689917,322,64
689925,321,64
689937,324,64
689948,320,64
689957,313,64
689968,380,64
689974,625,63
689988,659,63
689994,508,63
690007,193,63
690019,298,63
690030,315,63
690040,306,63
690041,309,63
690059,312,63
690071,314,63
690074,318,63
690092,321,63
690102,320,63
690112,326,63
690122,331,63
690133,332,63
690141,337,63
690153,341,63
690158,344,63
690173,349,63
690184,358,63
690190,362,63
690190,370,63
690214,378,63
690225,388,63
690232,395,63
690240,398,63
690256,398,63
690266,395,63
690274,382,63
690286,359,63
690296,338,63
690307,323,63
690317,310,63
690324,300,63
690338,299,63
690341,296,63
690358,297,63
690369,298,63
690376,301,63
690389,301,63
690391,303,63
690409,305,63
690420,303,63
690430,306,63
690441,304,63
690451,304,63
690458,305,63
690471,307,63
690479,306,63
690490,307,63
690502,306,63
690508,304,63
690523,308,63
690531,309,63
690543,306,63
690554,306,63
690564,308,63
690574,308,63
690580,308,63
690591,311,63
690605,312,63
690608,311,63
690625,313,63
690636,317,63
690641,311,63
690657,316,63
690666,314,63
690675,318,63
690689,316,63
690698,317,63
690708,316,63
690718,320,63
690724,321,63
690738,322,63
690748,322,63
690757,322,63
690769,325,63
690774,323,63
690790,325,63
690792,325,63
690808,324,63
690821,327,63
690831,326,63
690841,327,63
690852,329,63
690857,331,63
690872,332,63
690880,329,63
690890,334,63
690903,351,63
690913,343,63
690923,343,63
690934,341,63
690942,330,63
690942,331,63
690964,330,63
690975,331,63
690983,331,63
690990,332,63
691006,331,63
691016,324,63
691025,396,63
691036,627,62
691042,659,62
691057,526,62
691067,206,62
691074,310,62
691088,323,62
691098,313,62
691107,314,62
691107,316,62
691125,320,62
691133,322,62
691150,324,62
691157,325,62
691170,332,62
691174,334,62
691191,340,62
691201,338,62
691207,342,62
691222,348,62
691231,350,62
691241,357,62
691253,362,62
691258,369,62
691273,377,62
691282,385,62
691291,390,62
691304,394,62
691314,396,62
691324,395,62
691335,388,62
691341,370,62
691355,352,62
691365,334,62
691374,321,62
691386,313,62
691393,309,62
691406,305,62
691418,305,62
691424,308,62
691433,308,62
691448,308,62
691457,311,62
691468,314,62
691478,313,62
691489,314,62
691498,316,62
691508,313,62
691519,312,62
691530,313,62
691540,314,62
691550,313,62
691558,313,62
691571,313,62
691581,315,62
691592,316,62
691602,317,62
691608,317,62
691622,318,62
691633,317,62
691642,316,62
691653,316,62
691660,318,62
691674,318,62
691684,320,62
691691,322,62
691704,324,62
691714,322,62
691725,324,62
691735,325,62
691741,325,62
691741,326,62
691766,328,62
691775,326,62
691787,326,62
691797,327,62
691807,331,62
691817,332,62
691826,329,62
691838,328,62
691848,331,62
691858,332,62
691858,332,62
691875,330,62
691890,336,62
691900,330,62
691908,329,62
691920,341,62
691930,354,62
691941,348,62
691951,346,62
691958,343,62
691971,331,62
691982,331,62
691992,331,62
692002,333,62
692009,329,62
692023,334,62
692029,332,62
692042,323,62
692042,394,62
692065,649,62
692074,659,62
692084,532,62
692091,203,62
692105,302,62
692108,320,62
692125,310,62
692136,311,62
692146,315,62
692156,314,62
692167,321,62
692175,322,62
692187,324,62
692198,326,62
692207,332,62
692217,334,62
692225,339,62
692239,339,62
692249,342,62
692258,352,62
692269,357,62
692274,363,62
692290,369,62
692292,376,62
692308,384,62
692321,395,62
692325,398,62
692341,400,62
692352,404,62
692358,386,62
692373,364,62
692383,339,62
692392,321,62
692392,307,62
692408,292,62
692423,289,62
692434,287,62
692442,287,62
692455,286,62
692464,289,62
692475,290,62
692484,294,62
692492,292,62
692505,296,62
692516,294,62
692526,297,62
692537,296,62
692547,299,62
692557,297,62
692567,295,62
692574,297,62
692588,298,62
692598,292,62
692608,298,62
692608,298,62
692626,295,62
692639,297,62
692650,295,62
692658,297,62
692670,299,62
692680,299,62
692691,300,62
692701,302,62
692707,302,62
692721,301,62
692732,303,62
692740,305,62
692752,300,62
692758,308,62
692774,309,62
692783,305,62
692792,308,62
692804,310,62
692808,308,62
692824,307,62
692835,312,62
692841,328,62
692855,328,62
692867,324,62
692876,320,62
692886,313,62
692896,311,62
692907,311,62
692908,312,62
692926,308,62
692937,312,62
692948,313,62
692957,305,62
692968,329,62
692975,509,61
692981,658,61
692998,650,61
693007,214,61
693007,253,61
693026,308,61
693040,298,61
693050,295,61
693058,298,61
693071,304,61
693081,300,61
693091,310,61
693102,310,61
693108,311,61
693123,317,61
693132,318,61
693142,321,61
693153,329,61
693158,329,61
693174,335,61
693184,337,61
693191,347,61
693204,354,61
693207,361,61
693225,368,61
693235,376,61
693241,385,61
693255,386,61
693266,383,61
693274,376,61
693287,356,61
693297,334,61
693307,316,61
693317,300,61
693327,290,61
693327,284,61
693341,279,61
693357,281,61
693357,281,61
693374,282,61
693390,286,61
693400,287,61
693408,287,61
693420,291,61
693430,290,61
693440,293,61
693451,292,61
693458,292,61
693458,292,61
693475,294,61
693492,292,61
693492,290,61
693510,292,61
693523,291,61
693527,294,61
693541,296,61
693554,296,61
693558,298,61
693574,297,61
693584,299,61
693591,298,61
693605,300,61
693616,301,61
693625,302,61
693636,303,61
693641,304,61
693657,306,61
693658,304,61
693675,306,61
693687,310,61
693698,308,61
693708,311,61
693709,312,61
693728,314,61
693735,316,61
693749,315,61
693758,318,61
693769,318,61
693774,321,61
693790,319,61
693801,322,61
693808,321,61
693821,325,61
693827,323,61
693842,326,61
693852,328,61
693858,327,61
693858,332,61
693877,341,61
693892,350,61
693903,343,61
693913,342,61
693924,337,61
693928,334,61
693942,332,61
693954,332,61
693964,333,61
693974,335,61
693985,334,61
693992,330,61
693992,341,61
694008,494,61
694023,658,60
694036,657,60
694047,305,60
694057,254,60
694067,335,60
694075,318,60
694088,317,60
694098,321,60
694107,323,60
694119,327,60
694128,331,60
694128,330,60
694149,334,60
694158,337,60
694170,342,60
694180,345,60
694191,350,60
694191,352,60
694209,356,60
694221,363,60
694232,369,60
694241,372,60
694253,380,60
694258,385,60
694273,397,60
694283,403,60
694292,402,60
694304,407,60
694309,400,60
694325,389,60
694329,368,60
694342,350,60
694355,335,60
694357,321,60
694375,316,60
694386,316,60
694391,313,60
694407,313,60
694417,313,60
694425,316,60
694437,316,60
694448,315,60
694457,319,60
694468,318,60
694475,317,60
694489,318,60
694499,316,60
694509,320,60
694519,316,60
694529,319,60
694529,317,60
694550,317,60
694558,321,60
694570,319,60
694582,320,60
694591,320,60
694602,320,60
694609,322,60
694609,324,60
694633,321,60
694641,324,60
694653,322,60
694664,329,60
694673,325,60
694684,327,60
694690,331,60
694704,330,60
694714,331,60
694724,335,60
694735,334,60
694743,334,60
694755,332,60
694766,333,60
694776,335,60
694776,337,60
694797,335,60
694807,338,60
694817,338,60
694827,342,60
694838,340,60
694841,338,60
694858,342,60
694858,346,60
694875,344,60
694884,342,60
694899,350,60
694908,362,60
694920,359,60
694930,352,60
694941,350,60
694951,346,60
694958,338,60
694958,340,60
694974,339,60
694991,340,60
695002,342,60
695008,336,60
695008,329,60
695029,387,60
695041,626,60
695053,659,60
695058,581,60
695074,208,60
695084,302,60
695091,322,60
695091,313,60
695115,313,60
695125,312,60
695135,312,60
695141,314,60
695157,319,60
695167,319,60
695175,321,60
695183,322,60
695197,324,60
695207,326,60
695218,325,60
695225,330,60
695239,332,60
695249,337,60
695257,339,60
695269,345,60
695275,356,60
695275,363,60
695292,368,60
695308,374,60
695321,374,60
695329,373,60
695341,364,60
695352,340,60
695358,321,60
695358,299,60
695382,283,60
695391,273,60
695391,269,60
695408,265,60
695424,262,60
695434,262,60
695441,264,60
695441,266,60
695465,266,60
695474,270,60
695484,267,60
695492,269,60
695505,272,60
695516,271,60
695525,274,60
695533,275,60
695542,274,60
695558,280,60
695558,277,60
695575,276,60
695588,279,60
695598,277,60
695607,284,60
695607,283,60
695624,287,60
695639,291,60
695641,292,60
695658,290,60
695671,297,60
695675,299,60
695690,301,60
695700,301,60
695708,305,60
695721,310,60
695730,315,60
695740,310,60
695740,315,60
695755,321,60
695773,323,60
695782,326,60
695794,329,60
695797,333,60
695813,337,60
695824,355,60
695831,361,60
695845,359,60
695855,358,60
695863,353,60
695876,355,60
695880,358,60
695896,360,60
695907,361,60
695914,364,60
695914,364,60
695930,365,60
695946,371,60
695958,525,60
695963,659,60
695979,659,60
695989,393,60
695997,271,60
696009,363,60
696014,356,60
696029,349,60
696040,355,60
696047,358,60
696047,359,60
696065,364,60
696080,363,60
696092,367,60
696098,368,60
696112,375,60
696114,379,60
696130,381,60
696143,386,60
696153,390,60
696163,394,60
696174,403,60
696180,405,60
696194,415,60
696205,422,60
696213,431,60
696225,435,60
696232,439,60
696232,441,60
696256,433,60
696263,413,60
696263,391,60
696280,372,60
696296,353,60
696307,339,60
696313,335,60
696328,332,60
696338,324,60
696347,328,60
696359,327,60
696364,328,60
696379,328,60
696388,329,60
696398,330,60
696401,331,60
696413,330,60
696429,331,60
696441,328,60
696451,325,60
696461,324,60
696471,318,60
696480,318,60
696492,315,60
696503,316,60
696513,312,60
696514,310,60
696532,312,60
696543,308,60
696546,309,60
696563,309,60
696574,308,60
696580,307,60
696588,308,60
696597,304,60
696614,301,60
696626,305,60
696631,305,60
696646,304,60
696657,305,60
696663,304,60
696676,304,60
696688,306,60
696697,303,60
696697,305,60
696712,304,60
696728,305,60
696739,307,60
696746,305,60
696746,306,60
696769,306,60
696780,308,60
696788,309,60
696799,307,60
696810,307,60
696821,317,60
696831,325,60
696842,320,60
696848,322,60
696862,314,60
696873,309,60
696880,305,60
696893,308,60
696897,306,60
696913,307,60
696913,308,60
696931,306,60
696943,303,60
696955,395,60
696964,643,60
696964,658,60
696985,404,60
696995,195,60
697006,299,60
697014,297,60
697014,289,60
697031,293,60
697047,294,60
697057,298,60
697063,301,60
697078,304,60
697088,307,60
697096,307,60
697108,311,60
697119,315,60
697129,317,60
697139,322,60
697146,326,60
697160,330,60
697170,335,60
697179,340,60
697191,348,60
697197,350,60
697211,363,60
697215,368,60
697232,369,60
697242,377,60
697253,373,60
697262,359,60
697273,343,60
697283,325,60
697288,312,60
697304,296,60
697313,287,60
697324,282,60
697332,284,60
697345,286,60
697355,286,60
697364,283,60
697376,290,60
697385,291,60
697396,293,60
697397,291,60
697416,295,60
697427,293,60
697437,290,60
697446,290,60
697446,293,60
697468,293,60
697478,291,60
697489,294,60
697497,292,60
697508,292,60
697519,292,60
697529,292,60
697535,297,60
697550,297,60
697550,295,60
697570,296,60
697580,296,60
697591,300,60
697597,300,60
697612,303,60
697622,300,60
697633,303,60
697643,306,60
697647,303,60
697664,305,60
697674,307,60
697681,307,60
697686,311,60
697705,311,60
697714,313,60
697725,310,60
697735,314,60
697746,314,60
697756,316,60
697764,316,60
697764,317,60
697787,320,60
697796,321,60
697799,322,60
697814,319,60
697814,321,60
697833,326,60
697847,324,60
697859,320,60
697869,327,60
697879,343,60
697890,339,60
697897,336,60
697910,336,60
697913,327,60
697931,323,60
697941,323,60
697946,322,60
697961,326,60
697965,325,60
697981,325,60
697992,322,60
697997,359,60
698012,561,60
698023,659,60
698029,623,60
698044,210,60
698047,282,60
698063,318,60
698065,307,60
698080,310,60
698095,308,60
698105,313,60
698113,316,60
698125,323,60
698137,321,60
698146,323,60
698157,328,60
698163,330,60
698177,335,60
698188,336,60
698197,342,60
698197,347,60
698217,354,60
698229,358,60
698238,366,60
698247,373,60
698259,384,60
698264,389,60
698280,395,60
698290,400,60
698297,399,60
698310,391,60
698321,374,60
698331,357,60
698342,335,60
698348,319,60
698362,308,60
698373,304,60
698380,298,60
698393,300,60
698403,301,60
698414,298,60
698414,298,60
698432,304,60
698440,305,60
698455,305,60
698463,305,60
698475,304,60
698485,302,60
698496,304,60
698506,304,60
698514,304,60
698514,301,60
698535,307,60
698546,308,60
698546,304,60
698565,303,60
698578,306,60
698588,307,60
698596,310,60
698609,304,60
698619,307,60
698630,312,60
698639,309,60
698647,309,60
698660,313,60
698670,311,60
698681,311,60
698684,311,60
698697,313,60
698697,317,60
698714,317,60
698729,317,60
698742,317,60
698747,318,60
698763,316,60
698763,312,60
698781,320,60
698794,339,60
698799,337,60
698813,336,60
698825,333,60
698834,319,60
698845,320,60
698855,320,60
698864,317,60
698875,320,60
698883,323,60
698896,324,60
698907,314,60
698913,333,60
698927,531,60
698936,659,60
698947,655,60
698958,227,60
698963,261,60
698978,319,60
698985,308,60
698997,306,60
699010,308,60
699015,314,60
699030,316,60
699040,317,60
699047,321,60
699047,326,60
699071,327,60
699080,330,60
699091,336,60
699097,339,60
699113,343,60
699123,348,60
699132,353,60
699143,361,60
699147,369,60
699164,375,60
699174,387,60
699181,390,60
699194,396,60
699205,402,60
699214,398,60
699225,389,60
699235,366,60
699245,342,60
699247,321,60
699263,304,60
699276,294,60
699287,287,60
699297,284,60
699308,284,60
699314,284,60
699329,290,60
699338,291,60
699347,292,60
699347,293,60
699369,298,60
699379,299,60
699388,299,60
699397,300,60
699410,302,60
699414,302,60
699430,301,60
699441,303,60
699446,303,60
699461,306,60
699471,301,60
699479,300,60
699492,306,60
699503,303,60
699513,304,60
699523,307,60
699533,307,60
699544,306,60
699547,308,60
699563,310,60
699575,310,60
699581,311,60
699581,312,60
699606,314,60
699614,313,60
699626,311,60
699636,316,60
699646,317,60
699657,318,60
699663,319,60
699677,319,60
699687,320,60
699696,323,60
699708,322,60
699714,324,60
699728,338,60
699736,346,60
699747,342,60
699760,339,60
699770,334,60
699780,326,60
699790,326,60
699797,326,60
699797,324,60
699813,328,60
699830,327,60
699842,325,60
699852,326,60
699862,449,60
699872,658,60
699881,658,60
699886,358,60
699903,227,60
699913,322,60
699923,315,60
699931,309,60
699944,311,60
699955,314,60
699963,315,60
699975,319,60
699985,322,60
699985,326,60
700006,326,60
700014,331,60
700026,334,60
700036,339,60
700047,342,60
700047,347,60
700064,349,60
700064,356,60
700088,365,60
700097,370,60
700097,379,60
700114,388,60
700129,393,60
700140,396,60
700147,398,60
700160,394,60
700171,379,60
700180,360,60
700187,340,60
700196,325,60
700211,318,60
700222,309,60
700230,305,60
700237,306,60
700247,304,60
700262,304,60
700262,307,60
700283,309,60
700288,308,60
700304,312,60
700304,312,60
700321,315,60
700335,312,60
700345,315,60
700356,312,60
700366,311,60
700371,313,60
700386,314,60
700396,314,60
700404,312,60
700417,315,60
700421,313,60
700438,314,60
700449,316,60
700454,313,60
700454,317,60
700471,320,60
700487,315,60
700499,316,60
700506,319,60
700519,318,60
700529,320,60
700538,318,60
700551,319,60
700560,320,60
700571,321,60
700571,319,60
700588,323,60
700602,322,60
700612,323,60
700622,324,60
700633,324,60
700641,326,60
700653,326,60
700663,325,60
700674,328,60
700684,325,60
700694,325,60
700704,325,60
700715,329,60
700721,326,60
700735,326,60
700738,334,60
700755,345,60
700755,342,60
700771,342,60
700787,336,60
700788,328,60
700807,327,60
700817,326,60
700828,326,60
700838,325,60
700838,325,60
700854,326,60
700869,320,60
700871,365,60
700887,566,60
700900,659,60
700905,601,60
700920,210,60
700930,285,60
700938,320,60
700951,305,60
700962,305,60
700971,309,60
700982,312,60
700988,317,60
701003,316,60
701004,321,60
701022,324,60
701033,322,60
701039,327,60
701039,332,60
701065,333,60
701071,342,60
701085,344,60
701095,347,60
701105,356,60
701116,361,60
701120,371,60
701136,373,60
701147,381,60
701154,390,60
701167,391,60
701171,393,60
701187,385,60
701198,369,60
701204,347,60
701217,332,60
701227,320,60
701238,308,60
701243,301,60
701255,300,60
701270,300,60
701280,302,60
701287,301,60
701287,303,60
701305,303,60
701320,303,60
701329,307,60
701338,304,60
701352,307,60
701362,303,60
701372,306,60
701372,304,60
701393,309,60
701403,304,60
701413,305,60
701421,302,60
701429,306,60
701439,308,60
701455,306,60
701465,309,60
701471,310,60
701485,307,60
701496,305,60
701505,312,60
701505,313,60
701526,313,60
701537,314,60
701546,310,60
701556,317,60
701559,315,60
701572,317,60
701588,316,60
701599,318,60
701605,319,60
701619,319,60
701621,321,60
701639,324,60
701648,323,60
701660,325,60
701671,324,60
701681,326,60
701688,322,60
701688,322,60
701705,333,60
701721,347,60
701732,338,60
701738,338,60
701753,332,60
701762,331,60
701770,326,60
701783,326,60
701794,325,60
701804,329,60
701815,326,60
701822,326,60
701835,319,60
701839,404,60
701854,657,61
701866,659,61
701872,480,61
701886,201,61
701896,307,61
701907,318,61
701907,310,61
701926,312,61
701938,313,61
701947,316,61
701955,322,61
701969,323,61
701973,327,61
701988,328,61
701999,333,61
702009,336,61
702019,339,61
702030,344,61
702038,345,61
702050,353,61
702061,358,61
702071,365,61
702071,372,61
702088,382,61
702092,391,61
702112,398,61
702121,402,61
702133,406,61
702138,400,61
702153,388,61
702154,368,61
702172,345,61
702181,325,61
702187,313,61
702204,305,61
702215,300,61
702223,300,61
702235,298,61
702246,297,61
702254,301,61
702266,303,61
702277,303,61
702287,306,61
702297,306,61
702304,309,61
702317,309,61
702322,310,61
702338,310,61
702341,310,61
702355,312,61
702368,305,61
702380,306,61
702388,311,61
702388,308,61
702410,310,61
702420,311,61
702430,311,61
702439,309,61
702451,312,61
702455,313,61
702471,313,61
702481,313,61
702488,316,61
702503,313,61
702505,312,61
702522,317,61
702533,319,61
702539,317,61
702554,317,61
702565,320,61
702572,319,61
702584,322,61
702593,320,61
702605,322,61
702616,323,61
702621,325,61
702636,323,61
702639,326,61
702655,331,61
702667,343,61
702671,343,61
702687,338,61
702698,337,61
702705,331,61
702719,326,61
702728,327,61
702739,325,61
702749,326,61
702755,327,61
702755,328,61
702780,320,61
702788,356,61
702801,551,61
702804,658,61
702821,631,61
702831,221,61
702839,281,61
702852,321,61
702862,309,61
702872,310,61
702883,314,61
702892,316,61
702904,319,61
702914,322,61
702921,324,61
702921,327,61
702945,331,61
702954,332,61
702965,335,61
702973,339,61
702985,343,61
702996,350,61
703004,351,61
703007,359,61
703023,368,61
703036,373,61
703042,384,61
703055,387,61
703067,393,61
703076,396,61
703087,392,61
703099,386,61
703105,372,61
703120,351,61
703121,334,61
703140,318,61
703150,309,61
703160,303,61
703171,300,61
703181,302,61
703188,302,61
703201,304,61
703207,303,61
703221,304,61
703231,305,61
703239,310,61
703252,307,61
703263,310,61
703271,310,61
703283,308,61
703287,309,61
703304,307,61
703315,307,61
703321,306,61
703330,308,61
703345,310,61
703355,308,61
703365,309,61
703371,310,61
703371,311,61
703396,312,61
703405,312,61
703416,312,61
703421,316,61
703437,313,61
703448,313,61
703455,317,61
703469,317,61
703479,317,61
703488,318,61
703499,317,61
703504,323,61
703520,321,61
703530,320,61
703539,321,61
703551,322,61
703556,324,61
703571,322,61
703581,323,61
703588,327,61
703602,327,61
703613,325,61
703622,327,61
703622,328,61
703639,329,61
703653,329,61
703654,332,61
703671,333,61
703684,332,61
703694,334,61
703704,342,61
703714,354,61
703722,343,61
703735,346,61
703746,338,61
703755,334,61
703766,332,61
703777,332,61
703787,332,61
703790,332,61
703805,334,61
703817,333,61
703828,335,61
703838,461,61
703840,658,61
703856,658,61
703869,353,61
703880,239,61
703888,330,61
703900,322,61
703905,315,61
703921,321,61
703930,322,61
703940,328,61
703951,328,61
703962,331,61
703970,337,61
703980,336,61
703986,339,61
704003,343,61
704010,348,61
704010,352,61
704027,354,61
704043,360,61
704043,365,61
704060,373,61
704075,382,61
704077,386,61
704093,395,61
704106,401,61
704111,402,61
704126,409,61
704126,404,61
704143,394,61
704157,373,61
704167,354,61
704176,337,61
704187,328,61
704193,319,61
704208,312,61
704210,311,61
704227,316,61
704239,314,61
704249,315,61
704260,316,61
704260,316,61
704277,315,61
704286,316,61
704301,317,61
704310,316,61
704322,313,61
704331,314,61
704342,316,61
704352,314,61
704360,313,61
704373,317,61
704382,312,61
704393,311,61
704403,314,61
704409,312,61
704424,313,61
704428,314,61
704443,314,61
704455,316,61
704465,317,61
704475,314,61
704485,317,61
704494,318,61
704506,315,61
704509,317,61
704526,315,61
704537,315,61
704543,318,61
704557,314,61
704568,319,61
704576,318,61
704588,319,61
704598,316,61
704608,322,61
704619,317,61
704628,319,61
704628,318,61
704650,314,61
704660,318,61
704670,333,61
704677,336,61
704677,332,61
704701,329,61
704710,320,61
704721,315,61
704733,315,61
704742,318,61
704753,312,61
704759,316,61
704765,316,61
704778,313,61
704794,314,61
704804,462,61
704810,658,61
704824,658,61
704835,298,61
704843,223,61
704856,309,61
704860,303,61
704876,298,61
704887,303,61
704893,307,61
704893,307,61
704917,313,61
704926,316,61
704935,317,61
704943,319,61
704957,324,61
704969,327,61
704976,334,61
704989,336,61
704999,341,61
705010,347,61
705020,353,61
705027,359,61
705040,370,61
705051,377,61
705060,389,61
705060,392,61
705077,399,61
705092,400,61
705102,396,61
705110,379,61
705123,355,61
705132,334,61
705143,317,61
705153,303,61
705160,298,61
705173,295,61
705185,295,61
705192,294,61
705205,296,61
705215,299,61
705226,297,61
705235,303,61
705244,304,61
705244,307,61
705260,307,61
705277,309,61
705286,308,61
705294,310,61
705294,309,61
705309,310,61
705327,310,61
705335,310,61
705349,310,61
705359,309,61
705360,309,61
705376,311,61
705390,314,61
705396,314,61
705410,316,61
705420,317,61
705426,320,61
