Timestamp,ECGValue,BPM
978489,303,59
978504,303,59
978515,305,59
978521,306,59
978535,306,59
978545,307,59
978555,306,59
978559,306,59
978571,308,59
978581,304,59
978597,305,59
978604,306,59
978617,303,59
978627,305,59
978637,305,59
978648,305,59
978656,308,59
978659,307,59
978671,308,59
978687,307,59
978699,308,59
978709,311,59
978719,309,59
978729,311,59
978737,311,59
978737,312,59
978759,312,59
978771,314,59
978782,314,59
978788,316,59
978802,315,59
978812,317,59
978822,320,59
978833,316,59
978843,322,59
978853,319,59
978863,319,59
978871,325,59
978884,342,59
978894,337,59
978903,337,59
978915,331,59
978921,326,59
978936,323,59
978945,322,59
978953,325,59
978966,323,59
978977,325,59
978987,323,59
978998,317,59
979004,360,59
979004,580,60
979028,659,60
979038,606,60
979049,205,60
979054,292,60
979069,319,60
979074,309,60
979087,308,60
979099,308,60
979104,314,60
979120,316,60
979131,319,60
979140,322,60
979151,324,60
979162,327,60
979171,331,60
979171,335,60
979188,336,60
979202,342,60
979213,348,60
979221,350,60
979233,355,60
979243,363,60
979253,369,60
979259,379,60
979269,387,60
979285,388,60
979295,396,60
979304,393,60
979315,384,60
979326,367,60
979333,348,60
979333,332,60
979356,318,60
979365,308,60
979377,305,60
979388,300,60
979397,301,60
979408,302,60
979415,301,60
979429,304,60
979438,306,60
979450,306,60
979459,309,60
979468,311,60
979480,311,60
979491,308,60
979498,311,60
979511,313,60
979521,310,60
979532,309,60
979542,308,60
979552,310,60
979562,312,60
979573,309,60
979582,311,60
979593,311,60
979603,311,60
979612,314,60
979624,315,60
979633,313,60
979645,316,60
979649,313,60
979665,316,60
979675,319,60
979683,318,60
979695,320,60
979699,319,60
979716,321,60
979727,322,60
979737,323,60
979747,324,60
979758,323,60
979767,323,60
979767,325,60
979787,323,60
979798,325,60
979801,326,60
979816,328,60
979816,330,60
979840,328,60
979849,330,60
979860,327,60
979866,329,60
979881,332,60
979891,333,60
979899,328,60
979911,332,60
979915,332,60
979932,331,60
979943,330,60
979950,337,60
979963,352,60
979966,348,60
979983,348,60
979992,342,60
979999,336,60
979999,334,60
980019,334,60
980032,331,60
980045,333,60
980049,333,60
980065,335,60
980076,324,60
980082,381,60
980096,606,59
980099,659,59
980115,599,59
980127,212,59
980138,299,59
980148,325,59
980159,310,59
980165,313,59
980179,319,59
980184,318,59
980199,318,59
980209,323,59
980215,327,59
980230,332,59
980240,331,59
980248,336,59
980261,339,59
980271,341,59
980282,346,59
980292,350,59
980299,354,59
980299,361,59
980317,366,59
980333,376,59
980342,386,59
980351,392,59
980363,397,59
980375,399,59
980383,397,59
980395,395,59
980399,381,59
980416,360,59
980416,343,59
980434,333,59
980445,318,59
980456,308,59
980466,309,59
980477,308,59
980487,305,59
980497,309,59
980508,311,59
980517,311,59
980528,315,59
980539,312,59
980548,313,59
980559,313,59
980565,313,59
980578,316,59
980590,318,59
980599,317,59
980610,316,59
980616,314,59
980631,315,59
980635,318,59
980650,317,59
980662,318,59
980666,316,59
980682,321,59
980693,321,59
980699,320,59
980713,321,59
980718,323,59
980732,327,59
980744,323,59
980754,327,59
980764,326,59
980775,327,59
980782,329,59
980796,330,59
980801,328,59
980816,329,59
980827,331,59
980837,332,59
980847,336,59
980851,335,59
980866,336,59
980877,334,59
980884,334,59
980898,340,59
980908,355,59
980916,352,59
980929,348,59
980938,346,59
980949,340,59
980959,341,59
980966,337,59
980980,338,59
980990,340,59
980999,340,59
980999,341,59
981016,329,59
981032,379,59
981041,613,59
981048,659,59
981063,621,59
981066,214,59
981083,299,59
981093,334,59
981100,322,59
981114,322,59
981124,328,59
981132,327,59
981144,333,59
981150,332,59
981165,337,59
981166,340,59
981183,339,59
981192,346,59
981202,346,59
981216,350,59
981227,357,59
981237,357,59
981247,364,59
981257,369,59
981266,375,59
981266,386,59
981283,392,59
981298,399,59
981309,405,59
981316,404,59
981329,403,59
981339,394,59
981349,374,59
981361,356,59
981365,335,59
981381,323,59
981391,313,59
981399,308,59
981399,305,59
981416,305,59
981432,305,59
981443,305,59
981448,305,59
981463,308,59
981469,309,59
981483,310,59
981494,309,59
981504,312,59
981515,311,59
981525,312,59
981532,310,59
981546,308,59
981555,309,59
981565,309,59
981576,308,59
981582,307,59
981597,309,59
981607,307,59
981616,307,59
981628,309,59
981638,309,59
981647,310,59
981659,309,59
981666,308,59
981679,311,59
981688,311,59
981699,312,59
981709,313,59
981716,312,59
981730,312,59
981741,312,59
981749,314,59
981749,316,59
981771,314,59
981782,315,59
981792,312,59
981801,316,59
981801,315,59
981822,314,59
981833,317,59
981843,315,59
981851,316,59
981864,316,59
981865,318,59
981883,316,59
981895,313,59
981900,320,59
981915,329,59
981915,333,59
981932,327,59
981945,328,59
981949,320,59
981966,318,59
981977,317,59
981987,315,59
981997,316,59
982007,317,59
982015,316,59
982015,310,59
982032,334,59
982049,509,60
982049,658,60
982066,649,60
982080,230,60
982090,257,60
982100,311,60
982110,298,60
982121,292,60
982132,297,60
982133,296,60
982148,300,60
982162,304,60
982172,308,60
982182,311,60
982190,314,60
982198,315,60
982213,319,60
982223,320,60
982232,324,60
982244,332,60
982254,334,60
982264,338,60
982268,344,60
982283,351,60
982295,359,60
982299,365,60
982316,370,60
982326,372,60
982332,370,60
982346,369,60
982357,355,60
982366,338,60
982377,323,60
982386,305,60
982386,297,60
982408,292,60
982416,289,60
982416,285,60
982435,288,60
982449,290,60
982459,290,60
982468,291,60
982478,294,60
982484,295,60
982499,295,60
982511,296,60
982517,290,60
982532,295,60
982542,295,60
982549,296,60
982562,296,60
982573,293,60
982583,294,60
982593,296,60
982600,293,60
982613,295,60
982624,294,60
982634,295,60
982642,300,60
982651,297,60
982662,302,60
982675,298,60
982683,299,60
982696,304,60
982706,300,60
982715,302,60
982727,305,60
982732,303,60
982740,308,60
982749,305,60
982766,305,60
982778,308,60
982782,308,60
982798,311,60
982798,312,60
982816,310,60
982829,310,60
982840,311,60
982849,314,60
982861,315,60
982866,315,60
982880,318,60
982890,315,60
982898,319,60
982912,320,60
982916,316,60
982931,317,60
982943,328,60
982953,337,60
982963,333,60
982966,333,60
982983,329,60
982994,323,60
982999,322,60
983014,324,60
983025,324,60
983032,322,60
983046,326,60
983056,326,60
983065,316,60
983076,389,60
983086,645,59
983097,659,59
983107,529,59
983116,196,59
983127,305,59
983135,319,59
983147,308,59
983159,309,59
983167,316,59
983167,316,59
983188,319,59
983199,323,59
983209,324,59
983216,328,59
983216,334,59
983233,335,59
983250,336,59
983250,343,59
983269,347,59
983281,351,59
983291,353,59
983300,362,59
983313,370,59
983316,377,59
983332,387,59
983343,393,59
983349,398,59
983364,401,59
983374,399,59
983382,390,59
983386,374,59
983405,352,59
983415,335,59
983425,316,59
983434,309,59
983440,305,59
983455,295,59
983466,298,59
983466,299,59
983484,301,59
983493,302,59
983508,301,59
983515,304,59
983528,308,59
983539,304,59
983548,308,59
983559,308,59
983565,307,59
983580,310,59
983587,309,59
983600,308,59
983611,310,59
983615,308,59
983631,307,59
983633,308,59
983649,310,59
983662,310,59
983666,309,59
983682,310,59
983693,310,59
983699,308,59
983699,311,59
983716,311,59
983733,314,59
983744,316,59
983748,312,59
983765,317,59
983775,317,59
983783,316,59
983796,318,59
983802,318,59
983817,319,59
983826,317,59
983836,317,59
983847,326,59
983851,341,59
983866,336,59
983878,334,59
983882,330,59
983898,325,59
983909,321,59
983916,321,59
983929,323,59
983934,323,59
983949,322,59
983949,326,59
983970,313,59
983980,357,59
983990,583,60
984000,659,60
984011,603,60
984015,197,60
984031,284,60
984042,319,60
984052,305,60
984063,306,60
984073,309,60
984083,312,60
984094,317,60
984104,321,60
984113,322,60
984124,324,60
984133,329,60
984144,331,60
984155,333,60
984165,339,60
984175,343,60
984184,347,60
984196,355,60
984207,359,60
984216,367,60
984227,375,60
984232,381,60
984248,391,60
984249,390,60
984265,396,60
984278,395,60
984286,379,60
984299,364,60
984309,344,60
984315,326,60
984321,312,60
984339,302,60
984350,300,60
984360,300,60
984370,296,60
984380,301,60
984391,299,60
984400,300,60
984411,303,60
984416,302,60
984432,309,60
984443,310,60
984450,306,60
984463,309,60
984473,308,60
984483,309,60
984494,310,60
984505,308,60
984516,309,60
984517,308,60
984533,309,60
984546,309,60
984552,308,60
984565,312,60
984577,310,60
984583,310,60
984596,311,60
984607,312,60
984616,312,60
984628,311,60
984635,315,60
984648,317,60
984659,316,60
984666,317,60
984679,319,60
984688,319,60
984700,321,60
984700,320,60
984717,321,60
984730,321,60
984740,323,60
984749,324,60
984749,323,60
984772,324,60
984781,326,60
984792,325,60
984800,326,60
984813,330,60
984816,328,60
984833,329,60
984843,331,60
984850,331,60
984863,331,60
984874,326,60
984882,335,60
984895,344,60
984905,342,60
984916,346,60
984916,339,60
984933,337,60
984945,334,60
984951,332,60
984966,335,60
984977,329,60
984983,334,60
984998,337,60
985008,325,60
985016,385,60
985029,607,60
985039,659,60
985049,587,60
985059,220,60
985065,305,60
985080,328,60
985084,310,60
985099,314,60
985111,317,60
985121,320,60
985131,320,60
985135,324,60
985150,326,60
985161,328,60
985167,331,60
985183,333,60
985193,336,60
985199,340,60
985214,344,60
985223,346,60
985233,356,60
985233,356,60
985250,366,60
985264,371,60
985275,377,60
985282,384,60
985296,392,60
985299,393,60
985316,393,60
985327,386,60
985333,372,60
985347,354,60
985351,339,60
985366,324,60
985377,313,60
985383,307,60
985398,306,60
985400,306,60
985416,305,60
985416,310,60
985435,311,60
985450,309,60
985459,309,60
985469,309,60
985479,312,60
985491,312,60
985500,313,60
985511,313,60
985522,311,60
985531,311,60
985542,313,60
985552,310,60
985563,311,60
985573,311,60
985583,312,60
985594,310,60
985600,314,60
985614,315,60
985624,310,60
985635,315,60
985645,315,60
985650,314,60
985665,317,60
985670,317,60
985682,318,60
985682,317,60
985700,320,60
985715,321,60
985727,321,60
985733,319,60
985748,322,60
985750,322,60
985767,324,60
985778,324,60
985787,327,60
985799,325,60
985809,327,60
985817,328,60
985830,327,60
985834,330,60
985850,331,60
985850,326,60
985867,336,60
985881,347,60
985890,342,60
985900,342,60
985911,338,60
985923,330,60
985932,328,60
985943,329,60
985950,329,60
985962,335,60
985967,331,60
985983,329,60
985994,321,60
985999,387,60
985999,647,59
986025,659,59
986033,559,59
986041,198,59
986052,301,59
986066,320,59
986077,308,59
986083,313,59
986097,316,59
986100,317,59
986116,318,59
986128,323,59
986135,328,59
986148,328,59
986159,331,59
986166,335,59
986166,338,59
986183,339,59
986200,348,59
986210,351,59
986216,354,59
986230,363,59
986241,370,59
986249,378,59
986261,388,59
986267,393,59
986282,401,59
986292,401,59
986299,400,59
986313,386,59
986316,368,59
986333,347,59
986344,328,59
986350,314,59
986364,304,59
986374,300,59
986384,297,59
986393,296,59
986400,295,59
986400,297,59
986425,296,59
986433,298,59
986446,301,59
986456,303,59
986466,305,59
986466,304,59
986483,307,59
986493,305,59
986508,307,59
986517,306,59
986517,306,59
986533,305,59
986549,305,59
986559,304,59
986566,303,59
986580,305,59
986590,306,59
986600,307,59
986611,305,59
986616,305,59
986631,310,59
986636,310,59
986650,309,59
986661,309,59
986666,307,59
986682,314,59
986693,311,59
986699,313,59
986699,314,59
986716,313,59
986733,315,59
986744,315,59
986750,318,59
986764,317,59
986768,315,59
986784,318,59
986796,319,59
986799,320,59
986816,322,59
986827,321,59
986832,321,59
986847,324,59
986850,322,59
986866,325,59
986866,323,59
986882,329,59
986898,343,59
986909,341,59
986916,339,59
986929,338,59
986939,330,59
986950,328,59
986950,325,59
986970,328,59
986980,327,59
986991,327,59
986999,327,59
987011,320,59
987018,352,59
987032,544,60
987042,658,60
987052,649,60
987063,231,60
987073,275,60
987083,326,60
987093,309,60
987100,309,60
987114,314,60
987124,312,60
987132,319,60
987145,319,60
987155,323,60
987165,326,60
987166,326,60
987185,332,60
987193,333,60
987201,337,60
987216,342,60
987227,345,60
987233,353,60
987243,357,60
987258,364,60
987267,371,60
987278,378,60
987289,386,60
987299,393,60
987301,395,60
987317,398,60
987317,389,60
987340,375,60
987350,357,60
987361,341,60
987367,327,60
987381,315,60
987391,308,60
987400,309,60
987412,308,60
987417,306,60
987432,310,60
987435,310,60
987449,311,60
987463,311,60
987469,313,60
987484,313,60
987494,313,60
987500,316,60
987514,313,60
987526,312,60
987534,314,60
987545,314,60
987551,313,60
987565,314,60
987576,313,60
987584,312,60
987594,316,60
987607,311,60
987618,315,60
987628,315,60
987638,315,60
987648,315,60
987659,317,60
987667,317,60
987679,320,60
987687,320,60
987699,323,60
987710,319,60
987716,320,60
987730,321,60
987735,324,60
987750,326,60
987761,325,60
987772,326,60
987782,327,60
987792,328,60
987799,327,60
987812,330,60
987823,329,60
987833,329,60
987844,330,60
987850,331,60
987864,331,60
987867,332,60
987882,331,60
987895,332,60
987905,334,60
987916,335,60
987925,334,60
987933,335,60
987946,336,60
987957,337,60
987967,345,60
987969,354,60
987988,350,60
987998,347,60
988008,344,60
988017,337,60
988028,335,60
988039,334,60
988049,333,60
988051,335,60
988069,335,60
988080,334,60
988091,327,60
988099,437,60
988111,658,59
988116,659,59
988132,439,59
988142,214,59
988150,320,59
988162,322,59
988166,312,59
988182,310,59
988193,319,59
988199,320,59
988213,321,59
988223,326,59
988233,330,59
988244,328,59
988249,332,59
988265,335,59
988275,339,59
988285,344,59
988296,346,59
988301,350,59
988316,357,59
988328,363,59
988332,372,59
988347,380,59
988357,388,59
988367,395,59
988378,400,59
988385,398,59
988385,401,59
988409,390,59
988416,369,59
988429,347,59
988439,328,59
988450,313,59
988460,302,59
988466,298,59
988480,295,59
988487,293,59
988500,296,59
988511,296,59
988521,297,59
988532,299,59
988542,300,59
988549,303,59
988563,304,59
988567,302,59
988583,304,59
988594,304,59
988600,305,59
988613,303,59
988616,302,59
988634,301,59
988645,306,59
988655,302,59
988665,301,59
988670,299,59
988683,303,59
988696,304,59
988707,303,59
988716,303,59
988719,302,59
988734,306,59
988748,309,59
988758,305,59
988767,310,59
988778,309,59
988783,309,59
988799,311,59
988809,309,59
988817,311,59
988830,313,59
988841,312,59
988850,313,59
988861,315,59
988871,314,59
988882,314,59
988885,317,59
988900,335,59
988911,334,59
988917,332,59
988932,328,59
988943,318,59
988950,320,59
988955,319,59
988974,318,59
988983,321,59
988991,317,59
988999,319,59
989015,314,59
989025,335,59
989033,523,59
989041,659,59
989056,652,59
989066,229,59
989077,263,59
989082,315,59
989097,306,59
989107,300,59
989117,307,59
989128,308,59
989137,313,59
989148,317,59
989159,313,59
989168,320,59
989179,323,59
989184,325,59
989199,330,59
989200,333,59
989217,337,59
989217,340,59
989241,348,59
989250,353,59
989262,358,59
989272,367,59
989282,377,59
989290,383,59
989299,391,59
989299,393,59
989316,392,59
989332,385,59
989342,368,59
989350,346,59
989365,331,59
989375,316,59
989383,303,59
989395,299,59
989400,299,59
989416,297,59
989416,297,59
989434,299,59
989446,299,59
989449,299,59
989467,303,59
989477,304,59
989484,305,59
989498,306,59
989508,308,59
989517,308,59
989528,306,59
989539,309,59
989549,310,59
989559,306,59
989567,307,59
989580,305,59
989590,307,59
989599,308,59
989611,309,59
989621,313,59
989631,311,59
989635,310,59
989650,313,59
989650,314,59
989667,314,59
989682,313,59
989693,313,59
989701,315,59
989714,317,59
989724,320,59
989733,317,59
989744,316,59
989754,321,59
989765,321,59
989767,320,59
989783,324,59
989788,321,59
989800,323,59
989816,325,59
989816,324,59
989834,325,59
989847,327,59
989853,325,59
989867,328,59
989878,326,59
989884,329,59
989898,331,59
989909,331,59
989916,332,59
989929,333,59
989936,333,59
989950,333,59
989960,328,59
989968,344,59
989968,352,59
989984,350,59
989999,346,59
989999,343,59
990022,336,59
990032,333,59
990042,333,59
990049,337,59
990063,335,59
990073,334,59
990082,336,59
990087,322,59
990101,401,59
990115,652,59
990125,659,59
990133,559,59
990145,212,59
990150,309,59
990166,323,59
990176,312,59
990183,316,59
990196,317,59
990207,318,59
990216,322,59
990227,326,59
990233,330,59
990239,332,59
990258,333,59
990268,333,59
990278,336,59
990283,344,59
990299,348,59
990309,351,59
990317,359,59
990330,362,59
990340,368,59
990350,377,59
990361,384,59
990368,391,59
990368,401,59
990392,402,59
990400,402,59
990400,391,59
990417,376,59
990432,361,59
990442,338,59
990449,320,59
990464,312,59
990468,303,59
990483,303,59
990494,304,59
990505,304,59
990515,306,59
990525,302,59
990535,307,59
990545,302,59
990555,308,59
990566,310,59
990577,311,59
990584,311,59
990597,311,59
990608,311,59
990617,311,59
990617,309,59
990636,308,59
990648,306,59
990659,307,59
990669,307,59
990680,305,59
990688,310,59
990699,308,59
990710,309,59
990719,309,59
990731,309,59
990733,310,59
990749,313,59
990762,313,59
990771,315,59
990782,315,59
990793,314,59
990801,315,59
990801,316,59
990823,316,59
990833,320,59
990843,319,59
990850,321,59
990864,321,59
990875,319,59
990883,324,59
990891,324,59
990900,323,59
990916,323,59
990916,325,59
990935,343,59
990942,338,59
990951,335,59
990966,334,59
990977,323,59
990985,325,59
990998,322,59
991008,325,59
991017,323,59
991029,324,59
991039,326,59
991049,316,59
991060,377,59
991069,627,59
991081,659,59
991091,558,59
991100,196,59
991110,296,59
991121,317,59
991132,309,59
991135,308,59
991150,312,59
991150,314,59
991173,318,59
991182,320,59
991193,320,59
991200,324,59
991200,328,59
991224,331,59
991233,334,59
991244,337,59
991255,341,59
991264,345,59
991275,352,59
991283,362,59
991296,365,59
991300,374,59
991317,383,59
991327,390,59
991333,399,59
991347,399,59
991358,396,59
991366,386,59
991378,367,59
991388,346,59
991398,326,59
991409,310,59
991416,305,59
991429,296,59
991434,296,59
991450,296,59
991460,296,59
991470,297,59
991480,300,59
991492,302,59
991501,305,59
991512,301,59
991521,305,59
991532,306,59
991542,309,59
991551,308,59
991551,307,59
991570,310,59
991583,308,59
991593,305,59
991600,307,59
991615,307,59
991616,310,59
991633,308,59
991645,306,59
991651,309,59
991666,308,59
991676,308,59
991683,309,59
991696,313,59
991707,310,59
991716,311,59
991728,312,59
991733,314,59
991748,314,59
991757,315,59
991767,317,59
991778,317,59
991783,318,59
991799,319,59
991810,318,59
991817,321,59
991830,322,59
991841,323,59
991850,324,59
991861,324,59
991870,323,59
991882,327,59
991892,323,59
991900,326,59
991912,327,59
991923,325,59
991932,327,59
991943,330,59
991950,330,59
991964,329,59
991971,332,59
991984,331,59
991994,332,59
992002,334,59
992015,350,59
992025,344,59
992033,347,59
992046,342,59
992056,336,59
992066,333,59
992077,332,59
992083,329,59
992088,330,59
992108,331,59
992117,332,59
992117,319,59
992133,370,59
992143,581,59
992159,659,59
992167,618,59
992177,221,59
992189,292,59
992200,326,59
992210,309,59
992216,310,59
992231,313,59
992241,312,59
992251,320,59
992262,319,59
992271,324,59
992282,328,59
992292,326,59
992302,328,59
992313,332,59
992323,338,59
992334,340,59
992336,341,59
992351,349,59
992351,354,59
992371,361,59
992384,372,59
992394,376,59
992406,387,59
992417,388,59
992425,392,59
992435,395,59
992446,387,59
992450,372,59
992467,356,59
992478,335,59
992484,323,59
992498,310,59
992508,305,59
992517,305,59
992528,307,59
992539,304,59
992549,306,59
992560,303,59
992566,307,59
992581,310,59
992586,307,59
992599,308,59
992610,312,59
992616,310,59
992631,308,59
992642,310,59
992650,310,59
992661,308,59
992671,309,59
992682,309,59
992683,309,59
992701,312,59
992701,310,59
992724,310,59
992734,312,59
992744,309,59
992750,311,59
992764,312,59
992775,314,59
992783,318,59
992796,315,59
992806,315,59
992816,316,59
992827,317,59
992833,320,59
992847,320,59
992858,318,59
992867,320,59
992872,321,59
992883,321,59
992893,322,59
992909,322,59
992917,323,59
992929,326,59
992934,325,59
992950,323,59
992960,328,59
992968,329,59
992979,329,59
992992,332,59
993001,330,59
993001,328,59
993017,331,59
993033,333,59
993043,333,59
993050,332,59
993063,334,59
993072,332,59
993084,331,59
993093,340,59
993101,355,59
993115,347,59
993117,345,59
993135,339,59
993145,333,59
993155,331,59
993166,332,59
993176,331,59
993183,332,59
993196,332,59
993207,331,59
993217,324,59
993219,419,59
993234,658,59
993248,659,59
993254,476,59
993267,212,59
993278,313,59
993283,317,59
993299,312,59
993310,313,59
993317,315,59
993330,317,59
993341,323,59
993350,323,59
993361,326,59
993366,329,59
993382,330,59
993392,333,59
993400,337,59
993412,340,59
993423,345,59
993433,348,59
993443,354,59
993451,359,59
993451,368,59
993472,378,59
993483,387,59
993495,394,59
993500,400,59
993514,406,59
993525,399,59
993533,390,59
993546,370,59
993552,345,59
993566,329,59
993574,310,59
993583,303,59
993583,298,59
993598,293,59
993618,291,59
993625,294,59
993638,296,59
993649,296,59
993659,294,59
993669,299,59
993677,300,59
993689,302,59
993700,304,59
993710,305,59
993711,304,59
993726,304,59
993742,305,59
993742,305,59
993760,300,59
993771,305,59
993775,305,59
993792,301,59
993803,303,59
993809,305,59
993809,301,59
993826,305,59
993842,304,59
993854,306,59
993864,309,59
993875,308,59
993883,309,59
993893,310,59
993906,311,59
993909,313,59
993925,314,59
993933,314,59
993942,315,59
993957,316,59
993967,316,59
993976,314,59
993987,318,59
993993,321,59
994008,316,59
994019,319,59
994025,321,59
994039,338,59
994046,339,59
994058,333,59
994070,332,59
994080,324,59
994091,325,59
994100,321,59
994108,321,59
994121,323,59
994127,324,59
994141,324,59
994152,320,59
994159,322,59
994173,477,59
994182,658,58
994193,658,58
994203,304,58
994214,237,58
994224,320,58
994234,313,58
994242,306,58
994242,311,58
994260,315,58
994276,316,58
994285,320,58
994292,319,58
994292,327,58
994317,327,58
994325,331,58
994337,336,58
994341,335,58
994358,342,58
994359,344,58
994375,349,58
994380,357,58
994399,361,58
994409,371,58
994409,380,58
994426,390,58
994439,394,58
994450,400,58
994460,397,58
994461,396,58
994478,378,58
994492,355,58
994501,336,58
994510,317,58
994521,306,58
994532,301,58
994542,296,58
994544,297,58
994560,295,58
994573,295,58
994576,300,58
994592,299,58
994604,302,58
994610,305,58
994625,307,58
994635,307,58
994641,307,58
994655,307,58
994659,308,58
994676,306,58
994686,307,58
994692,309,58
994707,307,58
994717,308,58
994726,307,58
994731,307,58
994742,309,58
994758,307,58
994769,311,58
994775,310,58
994783,310,58
994792,312,58
994810,311,58
994820,314,58
994830,314,58
994841,314,58
994842,313,58
994858,317,58
994871,318,58
994880,318,58
994892,316,58
994902,319,58
994912,320,58
994922,322,58
994927,320,58
994943,320,58
994943,325,58
994960,323,58
994960,325,58
994985,326,58
994992,327,58
995005,329,58
995014,328,58
995025,327,58
995036,328,58
995044,327,58
995044,329,58
995067,330,58
995076,331,58
995086,333,58
995097,330,58
995107,334,58
995117,334,58
995126,333,58
995138,334,58
995149,335,58
995159,334,58
995159,337,58
995176,352,58
995189,348,58
995192,344,58
995208,341,58
995221,338,58
995226,332,58
995241,331,58
995251,332,58
995260,330,58
995271,335,58
995282,335,58
995292,322,58
995294,396,58
995310,632,58
995310,659,58
995334,555,58
995343,211,58
995354,310,58
995365,322,58
995374,308,58
995382,312,58
995393,315,58
995405,316,58
995409,317,58
995425,321,58
995436,325,58
995442,325,58
995457,329,58
995467,331,58
995476,334,58
995488,338,58
995498,342,58
995507,344,58
995519,353,58
995526,358,58
995539,366,58
995544,372,58
995544,382,58
995560,389,58
995576,392,58
995586,395,58
995594,399,58
995610,391,58
995622,379,58
995626,359,58
995642,340,58
995643,324,58
995659,313,58
995673,309,58
995676,304,58
995692,304,58
995703,306,58
995709,309,58
995724,311,58
995731,307,58
995742,309,58
995755,309,58
995761,307,58
995775,310,58
995782,312,58
995792,309,58
995806,311,58
995808,308,58
995825,309,58
995837,310,58
995843,308,58
995857,310,58
995868,310,58
995875,310,58
995889,309,58
995892,312,58
995909,311,58
995920,309,58
995926,310,58
995940,317,58
995950,315,58
995959,314,58
995971,319,58
995980,317,58
995991,318,58
996001,317,58
996010,317,58
996010,321,58
996026,319,58
996042,322,58
996044,323,58
996060,322,58
996060,322,58
996076,325,58
996093,324,58
996104,327,58
996108,330,58
996124,330,58
996134,327,58
996146,328,58
996151,333,58
996151,331,58
996176,331,58
996185,333,58
996196,328,58
996201,331,58
996217,332,58
996227,328,58
996234,332,58
996248,345,58
996254,349,58
996268,346,58
996278,342,58
996285,338,58
996299,334,58
996310,331,58
996318,332,58
996330,331,58
996340,331,58
996351,334,58
996361,327,58
996371,333,58
996382,486,58
996392,659,57
996401,659,57
996413,324,57
996419,234,57
996429,322,57
996443,315,57
996451,311,57
996451,315,57
996474,316,57
996484,318,57
996492,321,57
996501,327,57
996501,326,57
996518,330,57
996535,334,57
996544,337,57
996553,341,57
996567,344,57
996577,347,57
996586,354,57
996597,360,57
996608,366,57
996618,375,57
996628,386,57
996635,392,57
996649,402,57
996659,401,57
996669,405,57
996677,401,57
996685,387,57
996700,366,57
996705,343,57
996717,323,57
996730,308,57
996741,301,57
996751,298,57
996752,292,57
996768,294,57
996782,294,57
996785,294,57
996802,298,57
996813,298,57
996823,298,57
996834,302,57
996844,302,57
996851,302,57
996864,304,57
996870,305,57
996881,306,57
996895,304,57
996901,303,57
996915,303,57
996920,306,57
996935,304,57
996946,305,57
996958,304,57
996967,307,57
996977,306,57
996985,308,57
996998,305,57
997009,308,57
997018,306,57
997028,309,57
997035,312,57
997035,312,57
997060,311,57
997068,311,57
997080,312,57
997086,313,57
997101,313,57
997111,314,57
997117,314,57
997132,316,57
997141,315,57
997152,318,57
997152,314,57
997168,316,57
997178,318,57
997185,319,57
997201,321,57
997214,318,57
997218,325,57
997234,324,57
997244,321,57
997254,324,57
997264,327,57
997276,328,57
997285,321,57
997296,329,57
997302,342,57
997302,343,57
997319,339,57
997337,336,57
997337,329,57
997353,328,57
997368,328,57
997378,323,57
997388,327,57
997398,327,57
997409,330,57
997419,322,57
997430,353,57
997440,551,57
997452,659,57
997460,646,57
997468,228,57
997481,275,57
997491,323,57
997501,307,57
997512,305,57
997522,309,57
997532,312,57
997542,314,57
997551,318,57
997563,319,57
997573,322,57
997583,325,57
997594,329,57
997601,333,57
997615,334,57
997621,339,57
997636,341,57
997646,347,57
997652,354,57
997665,357,57
997676,366,57
997685,376,57
997696,383,57
997706,389,57
997717,390,57
997728,394,57
997734,389,57
997749,376,57
997758,354,57
997769,337,57
997779,322,57
997785,312,57
997785,303,57
997810,305,57
997819,301,57
997819,301,57
997841,302,57
997851,305,57
997861,305,57
997871,304,57
997882,304,57
997886,307,57
997901,309,57
997901,309,57
997923,309,57
997933,309,57
997944,308,57
997951,308,57
997964,306,57
997974,311,57
997985,310,57
997994,310,57
998003,311,57
998014,310,57
998026,313,57
998035,313,57
998046,313,57
998056,315,57
998066,312,57
998077,315,57
998086,317,57
998098,317,57
998108,317,57
998118,319,57
998128,322,57
998135,323,57
998149,321,57
998160,324,57
998169,325,57
998180,323,57
998190,325,57
998201,326,57
998204,328,57
998219,330,57
998231,328,57
998235,325,57
998251,332,57
998262,331,57
998272,329,57
998282,331,57
998292,331,57
998302,331,57
998313,334,57
998323,332,57
998334,332,57
998344,334,57
998352,332,57
998365,335,57
998375,344,57
998385,357,57
998396,348,57
998406,347,57
998416,340,57
998426,335,57
998435,332,57
998447,335,57
998458,332,57
998467,334,57
998477,336,57
998486,327,57
998499,338,57
998503,506,57
998519,659,57
998529,658,57
998536,306,57
998536,246,57
998560,327,57
998570,317,57
998580,311,57
998591,315,57
998601,319,57
998611,318,57
998619,322,57
998632,323,57
998636,330,57
998651,331,57
998662,332,57
998667,337,57
998683,338,57
998693,343,57
998701,346,57
998714,352,57
998719,355,57
998735,363,57
998735,372,57
998751,382,57
998764,391,57
998775,395,57
998785,403,57
998796,404,57
998806,399,57
998806,385,57
998819,366,57
998835,345,57
998848,325,57
998858,310,57
998868,303,57
998878,300,57
998884,296,57
998899,293,57
998909,297,57
998919,295,57
998930,297,57
998940,299,57
998950,298,57
998954,302,57
998970,303,57
998980,304,57
998992,304,57
999001,307,57
999012,304,57
999019,305,57
999029,304,57
999042,304,57
999051,306,57
999063,303,57
999068,305,57
999078,305,57
999086,304,57
999101,306,57
999114,305,57
999123,308,57
999136,308,57
999145,308,57
999152,308,57
999166,309,57
999176,311,57
999185,312,57
999197,309,57
999207,315,57
999217,312,57
999228,314,57
999235,314,57
999242,313,57
999251,318,57
999268,318,57
999279,317,57
999285,319,57
999293,320,57
999301,321,57
999318,320,57
999330,324,57
999340,339,57
999351,338,57
999356,336,57
999367,335,57
999381,326,57
999388,325,57
999401,322,57
999401,324,57
999417,324,57
999433,323,57
999443,324,57
999451,317,57
999464,347,57
999474,555,57
999484,659,57
999495,642,57
999502,219,57
999515,275,57
999526,320,57
999536,305,57
999536,308,57
999556,310,57
999567,312,57
999578,316,57
999584,319,57
999597,319,57
999608,324,57
999619,326,57
999619,329,57
999636,332,57
999649,334,57
999660,337,57
999669,343,57
999679,346,57
999686,353,57
999700,360,57
999704,368,57
999721,376,57
999731,382,57
999742,391,57
999751,394,57
999762,392,57
999768,389,57
999783,367,57
999792,349,57
999802,335,57
999813,316,57
999818,306,57
999834,298,57
999844,296,57
999851,296,57
999851,299,57
999869,299,57
999885,303,57
999895,301,57
999902,305,57
999917,303,57
999926,301,57
999936,305,57
999947,305,57
999952,307,57
999967,304,57
999978,307,57
999984,307,57
999989,305,57
1000008,306,57
1000018,306,57
1000018,305,57
1000035,307,57
1000045,308,57
1000060,306,57
1000068,309,57
1000081,312,57
1000091,309,57
1000100,312,57
1000111,312,57
1000118,314,57
1000132,311,57
1000142,315,57
1000151,318,57
1000162,314,57
1000172,318,57
1000183,319,57
1000194,319,57
1000203,319,57
1000214,319,57
1000219,323,57
1000234,322,57
1000244,322,57
1000252,323,57
1000265,322,57
1000276,327,57
1000284,328,57
1000287,326,57
1000304,327,57
1000304,325,57
1000327,328,57
1000334,327,57
1000348,327,57
1000358,332,57
1000368,330,57
1000378,332,57
1000388,332,57
1000399,331,57
1000409,331,57
1000418,342,57
1000418,349,57
1000435,346,57
1000451,343,57
1000454,340,57
1000469,338,57
1000481,334,57
1000492,334,57
1000502,331,57
1000512,331,57
1000518,333,57
1000533,330,57
1000537,332,57
1000552,451,57
1000563,658,57
1000569,658,57
1000579,400,57
1000594,225,57
1000602,328,57
1000615,319,57
1000620,310,57
1000635,312,57
1000646,314,57
1000655,320,57
1000666,322,57
1000668,329,57
1000684,327,57
1000694,329,57
1000702,336,57
1000717,336,57
1000728,338,57
1000736,344,57
1000748,342,57
1000753,351,57
1000769,358,57
1000769,363,57
1000784,369,57
1000784,375,57
1000810,386,57
1000818,395,57
1000830,395,57
1000835,402,57
1000851,400,57
1000853,390,57
1000869,376,57
1000882,354,57
1000892,337,57
1000901,322,57
1000913,312,57
1000919,308,57
1000933,303,57
1000944,302,57
1000953,308,57
1000953,306,57
1000969,310,57
1000985,308,57
1000986,311,57
1001002,310,57
1001015,309,57
1001026,312,57
1001034,314,57
1001046,309,57
1001053,313,57
1001067,316,57
1001068,308,57
1001085,311,57
1001098,311,57
1001107,311,57
1001118,311,57
1001121,310,57
1001136,313,57
1001149,314,57
1001159,316,57
1001169,313,57
1001180,313,57
1001185,318,57
1001200,315,57
1001210,318,57
1001218,324,57
1001231,318,57
1001241,321,57
1001252,322,57
1001262,321,57
1001269,323,57
1001282,321,57
1001291,323,57
1001302,327,57
1001302,322,57
1001320,329,57
1001333,327,57
1001344,327,57
1001351,332,57
1001365,330,57
1001371,330,57
1001386,331,57
1001396,328,57
1001406,336,57
1001416,349,57
1001427,352,57
1001435,345,57
1001447,343,57
1001455,338,57
1001455,333,57
1001478,332,57
1001486,334,57
1001486,334,57
1001508,335,57
1001518,337,57
1001528,323,57
1001536,363,57
1001545,585,57
1001560,659,57
1001569,647,57
1001579,221,57
1001591,281,57
1001601,329,57
1001611,316,57
1001618,314,57
1001631,317,57
1001642,321,57
1001653,323,57
1001662,325,57
1001673,330,57
1001683,331,57
1001694,336,57
1001704,335,57
1001714,341,57
1001719,346,57
1001735,348,57
1001742,352,57
1001752,358,57
1001765,365,57
1001776,371,57
1001785,378,57
1001793,389,57
1001802,397,57
1001817,400,57
1001818,406,57
1001836,404,57
1001848,396,57
1001858,380,57
1001868,356,57
1001879,336,57
1001885,322,57
1001898,309,57
1001902,304,57
1001918,298,57
1001930,295,57
1001937,301,57
1001950,298,57
1001961,300,57
1001969,302,57
1001981,301,57
1001991,305,57
1002001,305,57
1002012,305,57
1002019,305,57
1002033,306,57
1002037,307,57
1002053,309,57
1002063,307,57
1002074,305,57
1002084,305,57
1002086,304,57
1002101,307,57
1002101,306,57
1002119,303,57
1002135,309,57
1002146,307,57
1002152,307,57
1002166,308,57
1002177,309,57
1002185,307,57
1002197,313,57
1002207,313,57
1002217,309,57
1002228,312,57
1002235,314,57
1002249,313,57
1002251,313,57
1002269,312,57
1002279,314,57
1002285,315,57
1002293,316,57
1002310,318,57
1002318,314,57
1002330,316,57
1002335,318,57
1002352,321,57
1002362,320,57
1002368,320,57
1002382,320,57
1002392,321,57
1002402,325,57
1002413,322,57
1002419,323,57
1002433,319,57
1002444,340,57
1002452,341,57
1002452,335,57
1002469,335,57
1002484,327,57
1002495,326,57
1002503,323,57
1002515,322,57
1002526,324,57
1002536,323,57
1002546,324,57
1002556,318,57
1002567,347,57
1002568,535,57
1002587,658,57
1002597,651,57
1002602,235,57
1002618,270,57
1002628,322,57
1002634,308,57
1002640,305,57
1002659,308,57
1002668,310,57
1002679,312,57
1002685,313,57
1002700,317,57
1002702,321,57
1002718,327,57
1002726,325,57
1002735,331,57
1002751,333,57
1002762,337,57
1002769,341,57
1002782,344,57
1002793,352,57
1002802,354,57
1002810,363,57
1002823,374,57
1002834,380,57
1002835,386,57
1002851,389,57
1002865,390,57
1002868,384,57
1002885,371,57
1002895,354,57
1002901,338,57
1002916,318,57
1002918,311,57
1002935,304,57
1002947,298,57
1002952,303,57
1002952,301,57
1002977,302,57
1002985,302,57
1002985,305,57
1003003,305,57
1003019,306,57
1003029,305,57
1003038,308,57
1003049,308,57
1003053,308,57
1003069,311,57
1003079,308,57
1003087,311,57
1003087,308,57
1003111,308,57
1003119,310,57
1003131,308,57
1003135,310,57
1003151,311,57
1003154,310,57
1003169,313,57
1003169,312,57
1003193,312,57
1003202,314,57
1003202,313,57
1003219,312,57
1003234,317,57
1003235,317,57
1003254,319,57
1003254,318,57
1003269,318,57
1003286,320,57
1003297,315,57
1003302,323,57
1003302,321,57
1003321,324,57
1003335,323,57
1003347,323,57
1003353,328,57
1003368,327,57
1003369,328,57
1003387,327,57
1003399,328,57
1003402,331,57
1003418,330,57
1003430,329,57
1003435,331,57
1003451,332,57
1003453,330,57
1003469,331,57
1003481,340,57
1003486,354,57
1003502,345,57
1003512,344,57
1003518,340,57
1003532,335,57
1003543,332,57
1003552,335,57
1003563,333,57
1003569,334,57
1003584,333,57
1003589,335,57
1003601,326,57
1003601,423,57
1003623,657,57
1003635,659,57
1003643,480,57
1003651,210,57
1003651,311,57
1003669,321,57
1003686,313,57
1003695,315,57
1003702,316,57
1003717,318,57
1003728,322,57
1003737,327,57
1003748,328,57
1003758,328,57
1003769,337,57
1003769,338,57
1003786,341,57
1003799,341,57
1003810,348,57
1003820,357,57
1003830,357,57
1003841,365,57
1003851,369,57
1003861,380,57
1003869,391,57
1003882,397,57
1003892,402,57
1003902,410,57
1003912,404,57
1003919,392,57
1003933,376,57
1003936,352,57
1003953,332,57
1003964,316,57
1003969,305,57
1003985,298,57
1003995,298,57
1004002,299,57
1004002,296,57
1004026,300,57
1004036,295,57
1004047,299,57
1004053,302,57
1004067,302,57
1004077,305,57
1004086,305,57
1004098,306,57
1004102,308,57
1004118,309,57
1004128,305,57
1004137,306,57
1004148,304,57
1004152,308,57
1004168,305,57
1004180,304,57
1004188,307,57
1004201,304,57
1004211,302,57
1004218,307,57
1004231,308,57
1004241,304,57
1004251,306,57
1004262,306,57
1004268,308,57
1004282,307,57
1004292,311,57
1004301,313,57
1004313,311,57
1004324,311,57
1004334,313,57
1004336,313,57
1004353,313,57
1004365,311,57
1004375,314,57
1004386,316,57
1004395,319,57
1004401,322,57
1004416,317,57
1004427,317,57
1004435,328,57
1004447,339,57
1004453,335,57
1004467,332,57
1004477,327,57
1004487,323,57
1004498,319,57
1004501,320,57
1004519,321,57
1004519,319,57
1004535,323,57
1004549,320,57
1004560,314,57
1004568,371,57
1004580,612,57
1004591,659,57
1004601,560,57
1004602,197,57
1004617,294,57
1004617,313,57
1004641,303,57
1004652,304,57
1004660,306,57
1004672,310,57
1004682,311,57
1004693,316,57
1004703,318,57
1004713,322,57
1004723,324,57
1004731,324,57
1004744,330,57
1004755,334,57
1004760,340,57
1004776,341,57
1004785,352,57
1004794,354,57
1004807,362,57
1004817,367,57
1004827,378,57
1004835,388,57
1004848,391,57
1004858,398,57
1004868,392,57
1004876,384,57
1004886,367,57
1004893,343,57
1004909,328,57
1004919,309,57
1004928,304,57
1004939,298,57
1004949,295,57
1004960,299,57
1004960,297,57
1004977,298,57
1004992,299,57
1005002,301,57
1005010,302,57
1005010,303,57
1005033,304,57
1005042,306,57
1005053,309,57
1005060,306,57
1005073,311,57
1005083,308,57
1005093,308,57
1005093,309,57
1005111,307,57
1005125,309,57
1005135,308,57
1005143,307,57
1005156,310,57
1005161,310,57
1005177,312,57
1005187,311,57
1005194,310,57
1005194,313,57
1005218,315,57
1005227,314,57
1005237,315,57
1005244,316,57
1005259,321,57
1005261,318,57
1005277,318,57
1005289,321,57
1005294,321,57
1005309,322,57
1005320,322,57
1005329,321,57
1005340,322,57
1005351,323,57
1005362,324,57
1005362,326,57
1005377,323,57
1005392,329,57
1005402,328,57
1005410,329,57
1005423,330,57
1005433,328,57
1005443,328,57
1005454,329,57
1005461,330,57
1005474,333,57
1005483,332,57
1005494,333,57
1005506,334,57
1005512,333,57
1005526,333,57
1005535,332,57
1005547,341,57
1005556,354,57
1005561,349,57
1005577,348,57
1005588,342,57
1005595,334,57
1005608,333,57
1005619,334,57
1005627,334,57
1005639,334,57
1005649,333,57
1005659,334,57
1005669,322,57
1005678,397,57
1005690,647,57
1005694,659,57
1005711,557,57
1005711,210,57
1005727,305,57
1005741,320,57
1005751,310,57
1005760,311,57
1005773,314,57
1005777,316,57
1005792,317,57
1005803,320,57
1005810,324,57
1005810,329,57
1005832,329,57
1005843,331,57
1005854,340,57
1005860,337,57
1005875,343,57
1005886,347,57
1005895,353,57
1005906,357,57
1005914,363,57
1005927,374,57
1005937,382,57
1005944,389,57
1005958,396,57
1005962,397,57
1005978,397,57
1005988,397,57
1005998,375,57
1006003,355,57
1006019,335,57
1006027,320,57
1006040,309,57
1006050,303,57
1006060,300,57
1006071,300,57
1006081,299,57
1006091,305,57
1006094,300,57
1006110,306,57
1006122,303,57
1006127,305,57
1006142,307,57
1006145,306,57
1006162,308,57
1006173,308,57
1006177,305,57
1006194,303,57
1006204,307,57
1006211,306,57
1006211,302,57
1006231,305,57
1006244,306,57
1006256,308,57
1006261,307,57
1006276,306,57
1006283,306,57
1006294,311,57
1006294,307,57
1006310,310,57
1006327,314,57
1006338,313,57
1006344,312,57
1006358,318,57
1006360,310,57
1006378,313,57
1006389,316,57
1006394,315,57
1006409,317,57
1006420,314,57
1006427,321,57
1006435,320,57
1006444,316,57
1006461,319,57
1006471,324,57
1006477,320,57
1006491,320,57
1006493,326,57
1006512,326,57
1006512,324,57
1006528,324,57
1006538,329,57
1006553,329,57
1006560,328,57
1006566,327,57
1006579,334,57
1006594,325,57
1006604,324,57
1006610,337,57
1006625,350,57
1006636,343,57
1006643,347,57
1006656,340,57
1006660,331,57
1006677,333,57
1006687,329,57
1006694,326,57
1006694,329,57
1006711,331,57
1006727,333,57
1006735,321,57
1006744,356,57
1006744,567,57
1006761,659,57
1006778,648,57
1006790,230,57
1006794,285,57
1006810,323,57
1006820,314,57
1006827,309,57
1006839,312,57
1006848,316,57
1006860,317,57
1006869,324,57
1006877,322,57
1006891,327,57
1006902,326,57
1006910,328,57
1006923,340,57
1006933,337,57
1006944,342,57
1006954,344,57
1006963,347,57
1006974,358,57
1006985,361,57
1006995,368,57
1007005,376,57
1007015,388,57
1007026,396,57
1007036,396,57
1007045,398,57
1007045,390,57
1007062,379,57
1007077,357,57
1007086,334,57
1007094,321,57
1007108,308,57
1007111,299,57
1007127,301,57
1007139,299,57
1007144,295,57
1007160,299,57
1007169,300,57
1007178,298,57
1007190,304,57
1007201,302,57
1007210,303,57
1007221,305,57
1007228,307,57
1007232,307,57
1007244,306,57
1007261,307,57
1007272,308,57
1007277,308,57
1007293,308,57
1007304,307,57
1007311,307,57
1007311,310,57
1007327,307,57
1007344,310,57
1007354,307,57
1007361,311,57
1007361,310,57
1007386,312,57
1007394,314,57
1007394,313,57
1007411,312,57
1007427,314,57
1007438,316,57
1007443,315,57
1007457,321,57
1007467,319,57
1007477,320,57
1007488,321,57
1007494,319,57
1007508,318,57
1007519,321,57
1007529,320,57
1007540,322,57
1007550,323,57
1007560,324,57
1007570,324,57
1007579,324,57
1007590,325,57
1007601,324,57
1007611,326,57
1007622,329,57
1007628,328,57
1007643,331,57
1007650,331,57
1007660,329,57
1007673,332,57
1007682,332,57
1007693,335,57
1007704,333,57
1007711,332,57
1007725,336,57
1007735,341,57
1007743,351,57
1007743,348,57
1007761,347,57
1007775,343,57
1007785,336,57
1007794,331,57
1007806,335,57
1007811,332,57
1007827,334,57
1007838,333,57
1007844,331,57
1007858,325,57
1007868,393,57
1007878,620,57
1007889,658,57
1007899,510,57
1007909,217,57
1007920,309,57
1007927,323,57
1007941,313,57
1007951,309,57
1007961,318,57
1007961,313,57
1007978,325,57
1007991,332,57
1007996,325,57
1008010,328,57
1008022,330,57
1008027,328,57
1008043,340,57
1008053,340,57
1008060,336,57
1008060,351,57
1008077,358,57
1008094,363,57
1008094,367,57
1008110,371,57
1008110,382,57
1008136,387,57
1008143,395,57
1008156,395,57
1008160,400,57
1008177,395,57
1008187,382,57
1008194,357,57
1008208,346,57
1008218,326,57
1008227,328,57
1008238,315,57
1008243,298,57
1008259,321,57
1008261,306,57
1008277,311,57
1008290,317,57
1008293,310,57
1008310,314,57
1008320,320,57
1008330,315,57
1008341,314,57
1008351,308,57
1008360,324,57
1008360,313,57
1008377,304,57
1008392,318,57
1008395,317,57
1008410,313,57
1008423,305,57
1008427,311,57
1008444,318,57
1008454,312,57
1008460,299,57
1008475,329,57
1008481,310,57
1008494,316,57
1008506,311,57
1008511,308,57
1008511,320,57
1008536,307,57
1008544,315,57
1008544,328,57
1008561,311,57
1008577,318,57
1008586,296,57
1008594,313,57
1008608,326,57
1008611,325,57
1008627,309,57
1008639,328,57
1008644,331,57
1008660,321,57
1008669,325,57
1008680,329,57
1008691,315,57
1008695,322,57
1008711,326,57
1008721,342,57
1008728,341,57
1008742,336,57
1008743,332,57
1008762,329,57
1008772,327,57
1008783,317,57
1008793,328,57
1008804,327,57
1008811,324,57
1008823,330,57
1008834,319,57
1008843,446,57
1008855,661,57
1008860,658,57
1008875,359,57
1008886,222,57
1008894,319,57
1008906,309,57
1008916,301,57
1008927,313,57
1008937,307,57
1008944,311,57
1008958,319,57
1008961,307,57
1008977,326,57
1008988,327,57
1008995,325,57
1009009,334,57
1009011,329,57
1009027,341,57
1009039,332,57
1009045,347,57
1009060,355,57
1009070,358,57
1009077,363,57
1009091,370,57
1009096,386,57
1009110,383,57
1009122,392,57
1009129,393,57
1009143,387,57
1009152,381,57
1009160,363,57
1009173,341,57
1009177,333,57
1009194,312,57
1009204,307,57
1009211,302,57
1009211,303,57
1009228,299,57
1009244,305,57
1009255,301,57
1009261,306,57
1009276,306,57
1009286,311,57
1009294,304,57
1009306,308,57
1009311,308,57
1009327,307,57
1009338,310,57
1009344,308,57
1009344,305,57
1009361,307,57
1009379,304,57
1009387,306,57
1009399,303,57
1009409,306,57
1009420,302,57
1009427,305,57
1009440,306,57
1009443,306,57
1009461,308,57
1009471,308,57
1009477,308,57
1009492,309,57
1009496,311,57
1009510,310,57
1009510,313,57
1009527,313,57
1009542,314,57
1009554,314,57
1009561,316,57
1009574,318,57
1009583,315,57
1009594,318,57
1009605,317,57
1009611,319,57
1009625,322,57
1009630,318,57
1009644,318,57
1009656,321,57
1009663,325,57
1009677,332,57
1009687,335,57
1009697,336,57
1009707,335,57
1009717,326,57
1009727,326,57
1009738,326,57
1009744,324,57
1009744,328,57
1009761,326,57
1009777,324,57
1009790,317,57
1009795,402,57
1009810,636,58
1009820,658,58
1009828,427,58
1009840,218,58
1009851,313,58
1009860,318,58
1009872,308,58
1009878,312,58
1009883,310,58
1009903,312,58
1009911,317,58
1009923,320,58
1009934,319,58
1009943,327,58
1009943,327,58
1009960,330,58
1009975,334,58
1009985,336,58
1009994,341,58
1010005,343,58
1010010,347,58
1010027,355,58
1010036,357,58
1010044,368,58
1010056,375,58
1010060,378,58
1010078,386,58
1010088,384,58
1010095,383,58
1010108,377,58
1010118,361,58
1010128,347,58
1010139,333,58
1010143,314,58
1010159,310,58
1010170,305,58
1010177,305,58
1010190,308,58
1010195,304,58
1010211,305,58
1010211,306,58
1010228,305,58
1010242,311,58
1010252,301,58
1010261,311,58
1010272,312,58
1010277,306,58
1010293,312,58
1010296,311,58
1010311,310,58
1010324,310,58
1010331,308,58
1010344,313,58
1010354,311,58
1010360,311,58
1010375,313,58
1010385,309,58
1010396,315,58
1010406,315,58
1010413,313,58
1010427,314,58
1010427,313,58
1010444,317,58
1010453,320,58
1010463,316,58
1010478,320,58
1010488,319,58
1010496,320,58
1010508,322,58
1010519,319,58
1010529,323,58
1010540,321,58
1010546,319,58
1010561,327,58
1010570,321,58
1010581,318,58
1010590,324,58
1010601,328,58
1010611,339,58
1010622,340,58
1010630,342,58
1010643,336,58
1010643,327,58
1010660,330,58
1010673,327,58
1010678,326,58
1010694,330,58
1010695,326,58
1010710,325,58
1010724,336,58
1010728,479,58
1010744,658,58
1010744,656,58
1010766,268,58
1010776,254,58
1010786,326,58
1010795,318,58
1010795,312,58
1010812,311,58
1010827,318,58
1010836,319,58
1010845,322,58
1010858,323,58
1010868,324,58
1010878,329,58
1010886,331,58
1010895,334,58
1010910,338,58
1010920,340,58
1010928,348,58
1010940,349,58
1010944,356,58
1010960,362,58
1010960,365,58
1010978,373,58
1010992,380,58
1010995,384,58
1011010,388,58
1011023,388,58
1011033,382,58
1011043,376,58
1011053,359,58
1011061,339,58
1011074,330,58
1011080,317,58
1011094,311,58
1011104,307,58
1011111,305,58
1011111,308,58
1011135,304,58
1011145,310,58
1011156,310,58
1011161,307,58
1011177,314,58
1011187,311,58
1011196,311,58
1011196,313,58
1011210,310,58
1011227,311,58
1011238,312,58
1011244,309,58
1011259,313,58
1011269,310,58
1011277,311,58
1011289,314,58
1011296,309,58
1011310,312,58
1011316,309,58
1011328,313,58
1011335,312,58
1011348,312,58
1011361,316,58
1011372,316,58
1011378,315,58
1011388,319,58
1011396,316,58
1011411,320,58
1011423,322,58
1011427,318,58
1011443,320,58
1011454,320,58
1011460,321,58
1011474,323,58
1011486,315,58
1011495,323,58
1011496,330,58
1011511,333,58
1011511,339,58
1011535,339,58
1011545,328,58
1011545,327,58
1011561,322,58
1011577,328,58
1011587,328,58
1011596,323,58
1011596,329,58
1011619,317,58
1011628,360,58
1011640,554,59
1011644,658,59
1011660,584,59
1011669,210,59
1011678,295,59
1011690,326,59
1011697,308,59
1011710,313,59
1011722,314,59
1011728,316,59
1011742,322,59
1011745,317,59
1011762,324,59
1011773,328,59
1011778,327,59
1011793,332,59
1011797,334,59
1011813,336,59
1011824,342,59
1011827,343,59
1011845,347,59
1011855,351,59
1011862,359,59
